# OpenSignals Text File Format
# {"20:16:02:26:60:88": {"sensor": ["ECG"], "device name": "20:16:02:26:60:88", "column": ["nSeq", "I1", "I2", "O1", "O2", "A2"], "sync interval": 2, "time": "7:3:47.29", "comments": "", "device connection": "/dev/tty.BITalino-60-88-DevB", "channels": [2], "date": "2016-6-11", "mode": 0, "digital IO": [0, 0, 1, 1], "firmware version": "5.1", "device": "bitalino", "position": 0, "sampling rate": 1000, "label": ["A2"], "resolution": [4, 1, 1, 1, 1, 10], "special": [{}]}}
# EndOfHeader
1	1	1	0	0	496	
2	1	1	0	0	496	
3	1	1	0	0	497	
4	1	1	0	0	498	
5	1	1	0	0	498	
6	1	1	0	0	499	
7	1	1	0	0	499	
8	1	1	0	0	499	
9	1	1	0	0	499	
10	1	1	0	0	500	
11	1	1	0	0	500	
12	1	1	0	0	499	
13	1	1	0	0	499	
14	1	1	0	0	499	
15	1	1	0	0	499	
0	1	1	0	0	499	
1	1	1	0	0	499	
2	1	1	0	0	500	
3	1	1	0	0	500	
4	1	1	0	0	499	
5	1	1	0	0	499	
6	1	1	0	0	499	
7	1	1	0	0	499	
8	1	1	0	0	499	
9	1	1	0	0	499	
10	1	1	0	0	499	
11	1	1	0	0	500	
12	1	1	0	0	499	
13	1	1	0	0	499	
14	1	1	0	0	499	
15	1	1	0	0	499	
0	1	1	0	0	499	
1	1	1	0	0	499	
2	1	1	0	0	499	
3	1	1	0	0	500	
4	1	1	0	0	501	
5	1	1	0	0	502	
6	1	1	0	0	502	
7	1	1	0	0	502	
8	1	1	0	0	501	
9	1	1	0	0	502	
10	1	1	0	0	502	
11	1	1	0	0	502	
12	1	1	0	0	503	
13	1	1	0	0	504	
14	1	1	0	0	504	
15	1	1	0	0	505	
0	1	1	0	0	505	
1	1	1	0	0	506	
2	1	1	0	0	506	
3	1	1	0	0	506	
4	1	1	0	0	507	
5	1	1	0	0	507	
6	1	1	0	0	508	
7	1	1	0	0	508	
8	1	1	0	0	508	
9	1	1	0	0	509	
10	1	1	0	0	510	
11	1	1	0	0	511	
12	1	1	0	0	511	
13	1	1	0	0	511	
14	1	1	0	0	511	
15	1	1	0	0	512	
0	1	1	0	0	513	
1	1	1	0	0	514	
2	1	1	0	0	515	
3	1	1	0	0	514	
4	1	1	0	0	515	
5	1	1	0	0	515	
6	1	1	0	0	515	
7	1	1	0	0	515	
8	1	1	0	0	515	
9	1	1	0	0	515	
10	1	1	0	0	516	
11	1	1	0	0	516	
12	1	1	0	0	517	
13	1	1	0	0	517	
14	1	1	0	0	517	
15	1	1	0	0	518	
0	1	1	0	0	518	
1	1	1	0	0	518	
2	1	1	0	0	518	
3	1	1	0	0	519	
4	1	1	0	0	519	
5	1	1	0	0	520	
6	1	1	0	0	520	
7	1	1	0	0	520	
8	1	1	0	0	520	
9	1	1	0	0	520	
10	1	1	0	0	520	
11	1	1	0	0	519	
12	1	1	0	0	519	
13	1	1	0	0	520	
14	1	1	0	0	521	
15	1	1	0	0	521	
0	1	1	0	0	522	
1	1	1	0	0	523	
2	1	1	0	0	523	
3	1	1	0	0	523	
4	1	1	0	0	523	
5	1	1	0	0	524	
6	1	1	0	0	524	
7	1	1	0	0	524	
8	1	1	0	0	524	
9	1	1	0	0	524	
10	1	1	0	0	524	
11	1	1	0	0	525	
12	1	1	0	0	526	
13	1	1	0	0	527	
14	1	1	0	0	527	
15	1	1	0	0	527	
0	1	1	0	0	528	
1	1	1	0	0	528	
2	1	1	0	0	529	
3	1	1	0	0	530	
4	1	1	0	0	529	
5	1	1	0	0	530	
6	1	1	0	0	531	
7	1	1	0	0	531	
8	1	1	0	0	531	
9	1	1	0	0	531	
10	1	1	0	0	532	
11	1	1	0	0	533	
12	1	1	0	0	534	
13	1	1	0	0	535	
14	1	1	0	0	535	
15	1	1	0	0	536	
0	1	1	0	0	536	
1	1	1	0	0	536	
2	1	1	0	0	536	
3	1	1	0	0	536	
4	1	1	0	0	536	
5	1	1	0	0	536	
6	1	1	0	0	537	
7	1	1	0	0	536	
8	1	1	0	0	536	
9	1	1	0	0	536	
10	1	1	0	0	536	
11	1	1	0	0	536	
12	1	1	0	0	536	
13	1	1	0	0	536	
14	1	1	0	0	537	
15	1	1	0	0	539	
0	1	1	0	0	539	
1	1	1	0	0	539	
2	1	1	0	0	539	
3	1	1	0	0	539	
4	1	1	0	0	539	
5	1	1	0	0	539	
6	1	1	0	0	539	
7	1	1	0	0	538	
8	1	1	0	0	538	
9	1	1	0	0	538	
10	1	1	0	0	538	
11	1	1	0	0	538	
12	1	1	0	0	538	
13	1	1	0	0	537	
14	1	1	0	0	537	
15	1	1	0	0	537	
0	1	1	0	0	537	
1	1	1	0	0	535	
2	1	1	0	0	534	
3	1	1	0	0	533	
4	1	1	0	0	532	
5	1	1	0	0	532	
6	1	1	0	0	531	
7	1	1	0	0	531	
8	1	1	0	0	529	
9	1	1	0	0	528	
10	1	1	0	0	526	
11	1	1	0	0	525	
12	1	1	0	0	524	
13	1	1	0	0	523	
14	1	1	0	0	521	
15	1	1	0	0	519	
0	1	1	0	0	518	
1	1	1	0	0	516	
2	1	1	0	0	514	
3	1	1	0	0	512	
4	1	1	0	0	510	
5	1	1	0	0	508	
6	1	1	0	0	506	
7	1	1	0	0	504	
8	1	1	0	0	503	
9	1	1	0	0	502	
10	1	1	0	0	500	
11	1	1	0	0	498	
12	1	1	0	0	497	
13	1	1	0	0	495	
14	1	1	0	0	494	
15	1	1	0	0	492	
0	1	1	0	0	491	
1	1	1	0	0	489	
2	1	1	0	0	487	
3	1	1	0	0	487	
4	1	1	0	0	485	
5	1	1	0	0	483	
6	1	1	0	0	482	
7	1	1	0	0	481	
8	1	1	0	0	480	
9	1	1	0	0	479	
10	1	1	0	0	478	
11	1	1	0	0	478	
12	1	1	0	0	477	
13	1	1	0	0	477	
14	1	1	0	0	476	
15	1	1	0	0	476	
0	1	1	0	0	476	
1	1	1	0	0	475	
2	1	1	0	0	475	
3	1	1	0	0	474	
4	1	1	0	0	473	
5	1	1	0	0	473	
6	1	1	0	0	473	
7	1	1	0	0	472	
8	1	1	0	0	473	
9	1	1	0	0	472	
10	1	1	0	0	472	
11	1	1	0	0	472	
12	1	1	0	0	471	
13	1	1	0	0	471	
14	1	1	0	0	471	
15	1	1	0	0	470	
0	1	1	0	0	470	
1	1	1	0	0	470	
2	1	1	0	0	470	
3	1	1	0	0	471	
4	1	1	0	0	471	
5	1	1	0	0	471	
6	1	1	0	0	471	
7	1	1	0	0	471	
8	1	1	0	0	471	
9	1	1	0	0	471	
10	1	1	0	0	472	
11	1	1	0	0	472	
12	1	1	0	0	473	
13	1	1	0	0	473	
14	1	1	0	0	474	
15	1	1	0	0	475	
0	1	1	0	0	475	
1	1	1	0	0	475	
2	1	1	0	0	475	
3	1	1	0	0	476	
4	1	1	0	0	475	
5	1	1	0	0	476	
6	1	1	0	0	476	
7	1	1	0	0	476	
8	1	1	0	0	477	
9	1	1	0	0	478	
10	1	1	0	0	478	
11	1	1	0	0	477	
12	1	1	0	0	477	
13	1	1	0	0	478	
14	1	1	0	0	478	
15	1	1	0	0	478	
0	1	1	0	0	479	
1	1	1	0	0	479	
2	1	1	0	0	480	
3	1	1	0	0	480	
4	1	1	0	0	480	
5	1	1	0	0	480	
6	1	1	0	0	480	
7	1	1	1	0	480	
8	1	1	1	0	480	
9	1	1	1	0	481	
10	1	1	1	0	482	
11	1	1	1	0	482	
12	1	1	1	0	483	
13	1	1	1	0	483	
14	1	1	1	0	484	
15	1	1	1	0	485	
0	1	1	1	0	487	
1	1	1	1	0	487	
2	1	1	1	0	488	
3	1	1	1	0	488	
4	1	1	1	0	488	
5	1	1	1	0	489	
6	1	1	1	0	489	
7	1	1	1	0	489	
8	1	1	1	0	489	
9	1	1	1	0	490	
10	1	1	1	0	491	
11	1	1	1	0	491	
12	1	1	1	0	491	
13	1	1	1	0	491	
14	1	1	1	0	491	
15	1	1	1	0	492	
0	1	1	1	0	492	
1	1	1	1	0	493	
2	1	1	1	0	494	
3	1	1	1	0	495	
4	1	1	1	0	496	
5	1	1	1	0	496	
6	1	1	1	0	497	
7	1	1	1	0	497	
8	1	1	1	0	497	
9	1	1	1	0	498	
10	1	1	1	0	499	
11	1	1	1	0	500	
12	1	1	1	0	500	
13	1	1	1	0	501	
14	1	1	1	0	501	
15	1	1	1	0	501	
0	1	1	1	0	502	
1	1	1	1	0	502	
2	1	1	1	0	502	
3	1	1	1	0	501	
4	1	1	1	0	502	
5	1	1	1	0	502	
6	1	1	1	0	501	
7	1	1	1	0	501	
8	1	1	1	0	501	
9	1	1	1	0	502	
10	1	1	1	0	500	
11	1	1	1	0	501	
12	1	1	1	0	502	
13	1	1	1	0	501	
14	1	1	1	0	501	
15	1	1	1	0	500	
0	1	1	1	0	500	
1	1	1	1	0	500	
2	1	1	1	0	500	
3	1	1	1	0	501	
4	1	1	1	0	501	
5	1	1	1	0	502	
6	1	1	1	0	501	
7	1	1	1	0	501	
8	1	1	1	0	502	
9	1	1	1	0	502	
10	1	1	1	0	502	
11	1	1	1	0	502	
12	1	1	1	0	503	
13	1	1	1	0	503	
14	1	1	1	0	503	
15	1	1	1	0	503	
0	1	1	1	0	504	
1	1	1	1	0	504	
2	1	1	1	0	505	
3	1	1	1	0	505	
4	1	1	1	0	506	
5	1	1	1	0	506	
6	1	1	1	0	505	
7	1	1	1	0	505	
8	1	1	1	0	506	
9	1	1	1	0	507	
10	1	1	1	0	507	
11	1	1	1	0	507	
12	1	1	1	0	507	
13	1	1	1	0	507	
14	1	1	1	0	508	
15	1	1	1	0	508	
0	1	1	1	0	508	
1	1	1	1	0	508	
2	1	1	1	0	508	
3	1	1	1	0	508	
4	1	1	1	0	508	
5	1	1	1	0	507	
6	1	1	1	0	507	
7	1	1	1	0	507	
8	1	1	1	0	507	
9	1	1	1	0	506	
10	1	1	1	0	506	
11	1	1	1	0	506	
12	1	1	1	0	506	
13	1	1	1	0	507	
14	1	1	1	0	507	
15	1	1	1	0	508	
0	1	1	1	0	507	
1	1	1	1	0	507	
2	1	1	1	0	507	
3	1	1	1	0	508	
4	1	1	1	0	508	
5	1	1	1	0	507	
6	1	1	1	0	507	
7	1	1	1	0	507	
8	1	1	1	0	507	
9	1	1	1	0	507	
10	1	1	1	0	507	
11	1	1	1	0	507	
12	1	1	1	0	507	
13	1	1	1	0	507	
14	1	1	1	0	508	
15	1	1	1	0	508	
0	1	1	1	0	508	
1	1	1	1	0	509	
2	1	1	1	0	509	
3	1	1	1	0	510	
4	1	1	1	0	510	
5	1	1	1	0	510	
6	1	1	1	0	509	
7	1	1	1	0	509	
8	1	1	1	0	510	
9	1	1	1	0	510	
10	1	1	1	0	509	
11	1	1	1	0	509	
12	1	1	1	0	509	
13	1	1	1	0	508	
14	1	1	1	0	508	
15	1	1	1	0	508	
0	1	1	1	0	508	
1	1	1	1	0	508	
2	1	1	1	0	507	
3	1	1	1	0	507	
4	1	1	1	0	507	
5	1	1	1	0	507	
6	1	1	1	0	507	
7	1	1	1	0	508	
8	1	1	1	0	508	
9	1	1	1	0	507	
10	1	1	1	0	507	
11	1	1	1	0	507	
12	1	1	1	0	507	
13	1	1	1	0	507	
14	1	1	1	0	507	
15	1	1	1	0	507	
0	1	1	1	0	508	
1	1	1	1	0	508	
2	1	1	1	0	508	
3	1	1	1	0	509	
4	1	1	1	0	508	
5	1	1	1	0	508	
6	1	1	1	0	508	
7	1	1	1	0	509	
8	1	1	1	0	509	
9	1	1	1	0	510	
10	1	1	1	0	510	
11	1	1	1	0	511	
12	1	1	1	0	511	
13	1	1	1	0	512	
14	1	1	1	0	511	
15	1	1	1	0	510	
0	1	1	1	0	511	
1	1	1	1	0	512	
2	1	1	1	0	511	
3	1	1	1	0	511	
4	1	1	1	0	511	
5	1	1	1	0	511	
6	1	1	1	0	511	
7	1	1	1	0	511	
8	1	1	1	0	510	
9	1	1	1	0	509	
10	1	1	1	0	510	
11	1	1	1	0	510	
12	1	1	1	0	510	
13	1	1	1	0	510	
14	1	1	1	0	510	
15	1	1	1	0	510	
0	1	1	1	0	510	
1	1	1	1	0	510	
2	1	1	1	0	510	
3	1	1	1	0	510	
4	1	1	1	0	510	
5	1	1	1	0	510	
6	1	1	1	0	510	
7	1	1	1	0	511	
8	1	1	1	0	511	
9	1	1	1	0	511	
10	1	1	1	0	511	
11	1	1	1	0	511	
12	1	1	1	0	511	
13	1	1	1	0	511	
14	1	1	1	0	511	
15	1	1	1	0	511	
0	1	1	1	0	512	
1	1	1	1	0	512	
2	1	1	1	0	513	
3	1	1	1	0	514	
4	1	1	1	0	514	
5	1	1	1	0	514	
6	1	1	1	0	514	
7	1	1	1	0	515	
8	1	1	1	0	515	
9	1	1	1	0	515	
10	1	1	1	0	515	
11	1	1	1	0	515	
12	1	1	1	0	516	
13	1	1	1	0	516	
14	1	1	1	0	517	
15	1	1	1	0	516	
0	1	1	1	0	517	
1	1	1	1	0	517	
2	1	1	1	0	518	
3	1	1	1	0	518	
4	1	1	1	0	519	
5	1	1	1	0	520	
6	1	1	1	0	520	
7	1	1	1	0	520	
8	1	1	1	0	520	
9	1	1	1	0	521	
10	1	1	1	0	523	
11	1	1	1	0	523	
12	1	1	1	0	525	
13	1	1	1	0	525	
14	1	1	1	0	525	
15	1	1	1	0	525	
0	1	1	1	0	525	
1	1	1	1	0	524	
2	1	1	1	0	524	
3	1	1	1	0	523	
4	1	1	1	0	523	
5	1	1	1	0	523	
6	1	1	1	0	523	
7	1	1	1	0	523	
8	1	1	1	0	524	
9	1	1	1	0	524	
10	1	1	1	0	525	
11	1	1	1	0	525	
12	1	1	1	0	526	
13	1	1	1	0	527	
14	1	1	1	0	527	
15	1	1	1	0	527	
0	1	1	1	0	528	
1	1	1	1	0	529	
2	1	1	1	0	530	
3	1	1	1	0	531	
4	1	1	1	0	532	
5	1	1	1	0	532	
6	1	1	1	0	533	
7	1	1	1	0	533	
8	1	1	1	0	533	
9	1	1	1	0	532	
10	1	1	1	0	531	
11	1	1	1	0	531	
12	1	1	1	0	531	
13	1	1	1	0	530	
14	1	1	1	0	529	
15	1	1	1	0	528	
0	1	1	1	0	527	
1	1	1	1	0	526	
2	1	1	1	0	525	
3	1	1	1	0	523	
4	1	1	1	0	523	
5	1	1	1	0	523	
6	1	1	1	0	522	
7	1	1	1	0	522	
8	1	1	1	0	521	
9	1	1	1	0	522	
10	1	1	1	0	522	
11	1	1	1	0	521	
12	1	1	1	0	521	
13	1	1	1	0	521	
14	1	1	1	0	520	
15	1	1	1	0	519	
0	1	1	1	0	518	
1	1	1	1	0	518	
2	1	1	1	0	517	
3	1	1	1	0	516	
4	1	1	1	0	515	
5	1	1	1	0	514	
6	1	1	1	0	513	
7	1	1	1	0	512	
8	1	1	1	0	512	
9	1	1	1	0	511	
10	1	1	1	0	510	
11	1	1	1	0	509	
12	1	1	1	0	508	
13	1	1	1	0	507	
14	1	1	1	0	505	
15	1	1	1	0	504	
0	1	1	1	0	503	
1	1	1	1	0	503	
2	1	1	1	0	501	
3	1	1	1	0	500	
4	1	1	1	0	500	
5	1	1	1	0	500	
6	1	1	1	0	500	
7	1	1	1	0	500	
8	1	1	1	0	499	
9	1	1	1	0	499	
10	1	1	1	0	499	
11	1	1	1	0	498	
12	1	1	1	0	498	
13	1	1	1	0	499	
14	1	1	1	0	499	
15	1	1	1	0	499	
0	1	1	1	0	500	
1	1	1	1	0	500	
2	1	1	1	0	501	
3	1	1	1	0	501	
4	1	1	1	0	501	
5	1	1	1	0	502	
6	1	1	1	0	501	
7	1	1	1	0	501	
8	1	1	1	0	501	
9	1	1	1	0	501	
10	1	1	1	0	501	
11	1	1	1	0	502	
12	1	1	1	0	502	
13	1	1	1	0	502	
14	1	1	1	0	502	
15	1	1	1	0	502	
0	1	1	1	0	502	
1	1	1	1	0	503	
2	1	1	1	0	503	
3	1	1	1	0	504	
4	1	1	1	0	504	
5	1	1	1	0	504	
6	1	1	1	0	505	
7	1	1	1	0	505	
8	1	1	1	0	505	
9	1	1	1	0	505	
10	1	1	1	0	505	
11	1	1	1	0	505	
12	1	1	1	0	505	
13	1	1	1	0	505	
14	1	1	1	0	505	
15	1	1	1	0	506	
0	1	1	1	0	506	
1	1	1	1	0	505	
2	1	1	1	0	506	
3	1	1	1	0	506	
4	1	1	1	0	507	
5	1	1	1	0	507	
6	1	1	1	0	507	
7	1	1	1	0	506	
8	1	1	1	0	505	
9	1	1	1	0	505	
10	1	1	1	0	505	
11	1	1	1	0	506	
12	1	1	1	0	506	
13	1	1	1	0	506	
14	1	1	1	0	507	
15	1	1	1	0	507	
0	1	1	1	0	507	
1	1	1	1	0	508	
2	1	1	1	0	508	
3	1	1	1	0	508	
4	1	1	1	0	508	
5	1	1	1	0	508	
6	1	1	1	0	508	
7	1	1	1	0	509	
8	1	1	1	0	509	
9	1	1	1	0	509	
10	1	1	1	0	509	
11	1	1	1	0	510	
12	1	1	1	0	509	
13	1	1	1	0	509	
14	1	1	1	0	508	
15	1	1	1	0	507	
0	1	1	1	0	506	
1	1	1	1	0	505	
2	1	1	1	0	505	
3	1	1	1	0	504	
4	1	1	1	0	504	
5	1	1	1	0	505	
6	1	1	1	0	507	
7	1	1	1	0	511	
8	1	1	1	0	514	
9	1	1	1	0	518	
10	1	1	1	0	522	
11	1	1	1	0	527	
12	1	1	1	0	532	
13	1	1	1	0	537	
14	1	1	1	0	543	
15	1	1	1	0	550	
0	1	1	1	0	557	
1	1	1	1	0	566	
2	1	1	1	0	577	
3	1	1	1	0	588	
4	1	1	1	0	601	
5	1	1	1	0	612	
6	1	1	1	0	624	
7	1	1	1	0	635	
8	1	1	1	0	644	
9	1	1	1	0	654	
10	1	1	1	0	662	
11	1	1	1	0	671	
12	1	1	1	0	677	
13	1	1	1	0	682	
14	1	1	1	0	684	
15	1	1	1	0	683	
0	1	1	1	0	683	
1	1	1	1	0	679	
2	1	1	1	0	674	
3	1	1	1	0	664	
4	1	1	1	0	653	
5	1	1	1	0	638	
6	1	1	1	0	623	
7	1	1	1	0	608	
8	1	1	1	0	593	
9	1	1	1	0	577	
10	1	1	1	0	562	
11	1	1	1	0	548	
12	1	1	1	0	534	
13	1	1	1	0	519	
14	1	1	1	0	506	
15	1	1	1	0	493	
0	1	1	1	0	479	
1	1	1	1	0	466	
2	1	1	1	0	455	
3	1	1	1	0	444	
4	1	1	1	0	436	
5	1	1	1	0	431	
6	1	1	1	0	428	
7	1	1	1	0	426	
8	1	1	1	0	426	
9	1	1	1	0	428	
10	1	1	1	0	430	
11	1	1	1	0	432	
12	1	1	1	0	435	
13	1	1	1	0	438	
14	1	1	1	0	441	
15	1	1	1	0	444	
0	1	1	1	0	448	
1	1	1	1	0	452	
2	1	1	1	0	456	
3	1	1	1	0	462	
4	1	1	1	0	466	
5	1	1	1	0	470	
6	1	1	1	0	473	
7	1	1	1	0	476	
8	1	1	1	0	479	
9	1	1	1	0	481	
10	1	1	1	0	484	
11	1	1	1	0	485	
12	1	1	1	0	487	
13	1	1	1	0	489	
14	1	1	1	0	490	
15	1	1	1	0	492	
0	1	1	1	0	493	
1	1	1	1	0	494	
2	1	1	1	0	495	
3	1	1	1	0	496	
4	1	1	1	0	496	
5	1	1	1	0	497	
6	1	1	1	0	498	
7	1	1	1	0	499	
8	1	1	1	0	499	
9	1	1	1	0	500	
10	1	1	1	0	501	
11	1	1	1	0	502	
12	1	1	1	0	503	
13	1	1	1	0	503	
14	1	1	1	0	503	
15	1	1	1	0	504	
0	1	1	1	0	504	
1	1	1	1	0	504	
2	1	1	1	0	504	
3	1	1	1	0	504	
4	1	1	1	0	504	
5	1	1	1	0	504	
6	1	1	1	0	505	
7	1	1	1	0	505	
8	1	1	1	0	505	
9	1	1	1	0	506	
10	1	1	1	0	507	
11	1	1	1	0	507	
12	1	1	1	0	507	
13	1	1	1	0	507	
14	1	1	1	0	507	
15	1	1	1	0	507	
0	1	1	1	0	507	
1	1	1	1	0	507	
2	1	1	1	0	507	
3	1	1	1	0	508	
4	1	1	1	0	508	
5	1	1	1	0	509	
6	1	1	1	0	510	
7	1	1	1	0	510	
8	1	1	1	0	511	
9	1	1	1	0	511	
10	1	1	1	0	510	
11	1	1	1	0	510	
12	1	1	1	0	510	
13	1	1	1	0	511	
14	1	1	1	0	511	
15	1	1	1	0	511	
0	1	1	1	0	511	
1	1	1	1	0	511	
2	1	1	1	0	512	
3	1	1	1	0	512	
4	1	1	1	0	512	
5	1	1	1	0	513	
6	1	1	1	0	513	
7	1	1	1	0	514	
8	1	1	1	0	515	
9	1	1	1	0	515	
10	1	1	1	0	515	
11	1	1	1	0	515	
12	1	1	1	0	515	
13	1	1	1	0	515	
14	1	1	1	0	516	
15	1	1	1	0	517	
0	1	1	1	0	517	
1	1	1	1	0	518	
2	1	1	1	0	518	
3	1	1	1	0	519	
4	1	1	1	0	519	
5	1	1	1	0	519	
6	1	1	1	0	519	
7	1	1	1	0	519	
8	1	1	1	0	519	
9	1	1	1	0	519	
10	1	1	1	0	520	
11	1	1	1	0	520	
12	1	1	1	0	520	
13	1	1	1	0	520	
14	1	1	1	0	520	
15	1	1	1	0	521	
0	1	1	1	0	521	
1	1	1	1	0	521	
2	1	1	1	0	521	
3	1	1	1	0	521	
4	1	1	1	0	522	
5	1	1	1	0	522	
6	1	1	1	0	523	
7	1	1	1	0	523	
8	1	1	1	0	523	
9	1	1	1	0	523	
10	1	1	1	0	523	
11	1	1	1	0	524	
12	1	1	1	0	524	
13	1	1	1	0	524	
14	1	1	1	0	524	
15	1	1	1	0	524	
0	1	1	1	0	524	
1	1	1	1	0	524	
2	1	1	1	0	525	
3	1	1	1	0	525	
4	1	1	1	0	526	
5	1	1	1	0	526	
6	1	1	1	0	527	
7	1	1	1	0	528	
8	1	1	1	0	528	
9	1	1	1	0	529	
10	1	1	1	0	529	
11	1	1	1	0	529	
12	1	1	1	0	529	
13	1	1	1	0	529	
14	1	1	1	0	529	
15	1	1	1	0	528	
0	1	1	1	0	529	
1	1	1	1	0	529	
2	1	1	1	0	529	
3	1	1	1	0	530	
4	1	1	1	0	531	
5	1	1	1	0	531	
6	1	1	1	0	531	
7	1	1	1	0	531	
8	1	1	1	0	531	
9	1	1	1	0	531	
10	1	1	1	0	531	
11	1	1	1	0	532	
12	1	1	1	0	532	
13	1	1	1	0	533	
14	1	1	1	0	534	
15	1	1	1	0	534	
0	1	1	1	0	535	
1	1	1	1	0	535	
2	1	1	1	0	536	
3	1	1	1	0	536	
4	1	1	1	0	537	
5	1	1	1	0	537	
6	1	1	1	0	538	
7	1	1	1	0	539	
8	1	1	1	0	539	
9	1	1	1	0	539	
10	1	1	1	0	540	
11	1	1	1	0	540	
12	1	1	1	0	540	
13	1	1	1	0	540	
14	1	1	1	0	541	
15	1	1	1	0	541	
0	1	1	1	0	541	
1	1	1	1	0	542	
2	1	1	1	0	542	
3	1	1	1	0	542	
4	1	1	1	0	542	
5	1	1	1	0	542	
6	1	1	1	0	541	
7	1	1	1	0	542	
8	1	1	1	0	542	
9	1	1	1	0	542	
10	1	1	1	0	542	
11	1	1	1	0	542	
12	1	1	1	0	541	
13	1	1	1	0	542	
14	1	1	1	0	541	
15	1	1	1	0	541	
0	1	1	1	0	541	
1	1	1	1	0	541	
2	1	1	1	0	540	
3	1	1	1	0	540	
4	1	1	1	0	540	
5	1	1	1	0	540	
6	1	1	1	0	540	
7	1	1	1	0	540	
8	1	1	1	0	540	
9	1	1	1	0	540	
10	1	1	1	0	540	
11	1	1	1	0	540	
12	1	1	1	0	540	
13	1	1	1	0	540	
14	1	1	1	0	539	
15	1	1	1	0	539	
0	1	1	1	0	539	
1	1	1	1	0	538	
2	1	1	1	0	538	
3	1	1	1	0	537	
4	1	1	1	0	536	
5	1	1	1	0	535	
6	1	1	1	0	534	
7	1	1	1	0	533	
8	1	1	1	0	532	
9	1	1	1	0	531	
10	1	1	1	0	529	
11	1	1	1	0	528	
12	1	1	1	0	527	
13	1	1	1	0	525	
14	1	1	1	0	523	
15	1	1	1	0	521	
0	1	1	1	0	519	
1	1	1	1	0	516	
2	1	1	1	0	514	
3	1	1	1	0	512	
4	1	1	1	0	511	
5	1	1	1	0	510	
6	1	1	1	0	508	
7	1	1	1	0	506	
8	1	1	1	0	504	
9	1	1	1	0	502	
10	1	1	1	0	500	
11	1	1	1	0	498	
12	1	1	1	0	496	
13	1	1	1	0	495	
14	1	1	1	0	493	
15	1	1	1	0	491	
0	1	1	1	0	489	
1	1	1	1	0	488	
2	1	1	1	0	487	
3	1	1	1	0	486	
4	1	1	1	0	484	
5	1	1	1	0	483	
6	1	1	1	0	482	
7	1	1	1	0	481	
8	1	1	1	0	480	
9	1	1	1	0	480	
10	1	1	1	0	480	
11	1	1	1	0	479	
12	1	1	1	0	478	
13	1	1	1	0	476	
14	1	1	1	0	476	
15	1	1	1	0	476	
0	1	1	1	0	475	
1	1	1	1	0	475	
2	1	1	1	0	473	
3	1	1	1	0	473	
4	1	1	1	0	473	
5	1	1	1	0	472	
6	1	1	1	0	472	
7	1	1	1	0	472	
8	1	1	1	0	472	
9	1	1	1	0	472	
10	1	1	1	0	472	
11	1	1	1	0	471	
12	1	1	1	0	471	
13	1	1	1	0	471	
14	1	1	1	0	471	
15	1	1	1	0	470	
0	1	1	1	0	470	
1	1	1	1	0	469	
2	1	1	1	0	470	
3	1	1	1	0	470	
4	1	1	1	0	470	
5	1	1	1	0	471	
6	1	1	1	0	471	
7	1	1	1	0	472	
8	1	1	1	0	472	
9	1	1	1	0	473	
10	1	1	1	0	474	
11	1	1	1	0	474	
12	1	1	1	0	474	
13	1	1	1	0	475	
14	1	1	1	0	476	
15	1	1	1	0	477	
0	1	1	1	0	478	
1	1	1	1	0	479	
2	1	1	1	0	480	
3	1	1	1	0	480	
4	1	1	1	0	480	
5	1	1	1	0	480	
6	1	1	1	0	480	
7	1	1	1	0	481	
8	1	1	1	0	482	
9	1	1	1	0	482	
10	1	1	1	0	483	
11	1	1	1	0	483	
12	1	1	1	0	484	
13	1	1	1	0	484	
14	1	1	1	0	484	
15	1	1	1	0	484	
0	1	1	1	0	484	
1	1	1	1	0	484	
2	1	1	1	0	484	
3	1	1	1	0	485	
4	1	1	1	0	486	
5	1	1	1	0	486	
6	1	1	1	0	487	
7	1	1	1	0	487	
8	1	1	1	0	487	
9	1	1	1	0	486	
10	1	1	1	0	487	
11	1	1	1	0	487	
12	1	1	1	0	488	
13	1	1	1	0	488	
14	1	1	1	0	489	
15	1	1	1	0	490	
0	1	1	1	0	490	
1	1	1	1	0	490	
2	1	1	1	0	490	
3	1	1	1	0	489	
4	1	1	1	0	489	
5	1	1	1	0	489	
6	1	1	1	0	489	
7	1	1	1	0	490	
8	1	1	1	0	490	
9	1	1	1	0	491	
10	1	1	1	0	492	
11	1	1	1	0	492	
12	1	1	1	0	492	
13	1	1	1	0	492	
14	1	1	1	0	492	
15	1	1	1	0	494	
0	1	1	1	0	494	
1	1	1	1	0	495	
2	1	1	1	0	496	
3	1	1	1	0	495	
4	1	1	1	0	496	
5	1	1	1	0	497	
6	1	1	1	0	496	
7	1	1	1	0	497	
8	1	1	1	0	497	
9	1	1	1	0	498	
10	1	1	1	0	498	
11	1	1	1	0	499	
12	1	1	1	0	499	
13	1	1	1	0	500	
14	1	1	1	0	500	
15	1	1	1	0	500	
0	1	1	1	0	499	
1	1	1	1	0	500	
2	1	1	1	0	499	
3	1	1	1	0	499	
4	1	1	1	0	499	
5	1	1	1	0	499	
6	1	1	1	0	498	
7	1	1	1	0	498	
8	1	1	1	0	498	
9	1	1	1	0	498	
10	1	1	1	0	497	
11	1	1	1	0	497	
12	1	1	1	0	497	
13	1	1	1	0	497	
14	1	1	1	0	497	
15	1	1	1	0	497	
0	1	1	1	0	498	
1	1	1	1	0	498	
2	1	1	1	0	499	
3	1	1	1	0	499	
4	1	1	1	0	499	
5	1	1	1	0	499	
6	1	1	1	0	499	
7	1	1	1	0	500	
8	1	1	1	0	501	
9	1	1	1	0	501	
10	1	1	1	0	501	
11	1	1	1	0	501	
12	1	1	1	0	501	
13	1	1	1	0	501	
14	1	1	1	0	501	
15	1	1	1	0	501	
0	1	1	1	0	502	
1	1	1	1	0	502	
2	1	1	1	0	502	
3	1	1	1	0	503	
4	1	1	1	0	504	
5	1	1	1	0	504	
6	1	1	1	0	504	
7	1	1	1	0	505	
8	1	1	1	0	505	
9	1	1	1	0	505	
10	1	1	1	0	505	
11	1	1	1	0	505	
12	1	1	1	0	505	
13	1	1	1	0	506	
14	1	1	1	0	506	
15	1	1	1	0	507	
0	1	1	1	0	507	
1	1	1	1	0	507	
2	1	1	1	0	507	
3	1	1	1	0	506	
4	1	1	1	0	506	
5	1	1	1	0	507	
6	1	1	1	0	507	
7	1	1	1	0	508	
8	1	1	1	0	508	
9	1	1	1	0	508	
10	1	1	1	0	508	
11	1	1	1	0	508	
12	1	1	1	0	508	
13	1	1	1	0	508	
14	1	1	1	0	508	
15	1	1	1	0	509	
0	1	1	1	0	510	
1	1	1	1	0	510	
2	1	1	1	0	511	
3	1	1	1	0	511	
4	1	1	1	0	511	
5	1	1	1	0	510	
6	1	1	1	0	510	
7	1	1	1	0	509	
8	1	1	1	0	509	
9	1	1	1	0	509	
10	1	1	1	0	508	
11	1	1	1	0	509	
12	1	1	1	0	509	
13	1	1	1	0	509	
14	1	1	1	0	509	
15	1	1	1	0	509	
0	1	1	1	0	508	
1	1	1	1	0	508	
2	1	1	1	0	509	
3	1	1	1	0	509	
4	1	1	1	0	509	
5	1	1	1	0	509	
6	1	1	1	0	510	
7	1	1	1	0	510	
8	1	1	1	0	510	
9	1	1	1	0	510	
10	1	1	1	0	510	
11	1	1	1	0	509	
12	1	1	1	0	509	
13	1	1	1	0	509	
14	1	1	1	0	509	
15	1	1	1	0	509	
0	1	1	1	0	509	
1	1	1	1	0	509	
2	1	1	1	0	509	
3	1	1	1	0	509	
4	1	1	1	0	508	
5	1	1	1	0	508	
6	1	1	1	0	508	
7	1	1	1	0	509	
8	1	1	1	0	509	
9	1	1	1	0	509	
10	1	1	1	0	508	
11	1	1	1	0	508	
12	1	1	1	0	508	
13	1	1	1	0	507	
14	1	1	1	0	507	
15	1	1	1	0	506	
0	1	1	1	0	507	
1	1	1	1	0	507	
2	1	1	1	0	507	
3	1	1	1	0	508	
4	1	1	1	0	508	
5	1	1	1	0	509	
6	1	1	1	0	509	
7	1	1	1	0	510	
8	1	1	1	0	510	
9	1	1	1	0	510	
10	1	1	1	0	511	
11	1	1	1	0	511	
12	1	1	1	0	511	
13	1	1	1	0	511	
14	1	1	1	0	511	
15	1	1	1	0	511	
0	1	1	1	0	512	
1	1	1	1	0	512	
2	1	1	1	0	512	
3	1	1	1	0	512	
4	1	1	1	0	512	
5	1	1	1	0	512	
6	1	1	1	0	512	
7	1	1	1	0	512	
8	1	1	1	0	512	
9	1	1	1	0	512	
10	1	1	1	0	512	
11	1	1	1	0	512	
12	1	1	1	0	512	
13	1	1	1	0	512	
14	1	1	1	0	512	
15	1	1	1	0	512	
0	1	1	1	0	512	
1	1	1	1	0	512	
2	1	1	1	0	513	
3	1	1	1	0	513	
4	1	1	1	0	513	
5	1	1	1	0	513	
6	1	1	1	0	513	
7	1	1	1	0	513	
8	1	1	1	0	513	
9	1	1	1	0	513	
10	1	1	1	0	513	
11	1	1	1	0	513	
12	1	1	1	0	512	
13	1	1	1	0	512	
14	1	1	1	0	512	
15	1	1	1	0	512	
0	1	1	1	0	512	
1	1	1	1	0	512	
2	1	1	1	0	511	
3	1	1	1	0	511	
4	1	1	1	0	511	
5	1	1	1	0	511	
6	1	1	1	0	512	
7	1	1	1	0	512	
8	1	1	1	0	512	
9	1	1	1	0	512	
10	1	1	1	0	512	
11	1	1	1	0	512	
12	1	1	1	0	513	
13	1	1	1	0	513	
14	1	1	1	0	513	
15	1	1	1	0	513	
0	1	1	1	0	514	
1	1	1	1	0	514	
2	1	1	1	0	514	
3	1	1	1	0	514	
4	1	1	1	0	513	
5	1	1	1	0	512	
6	1	1	1	0	512	
7	1	1	1	0	511	
8	1	1	1	0	510	
9	1	1	1	0	510	
10	1	1	1	0	510	
11	1	1	1	0	511	
12	1	1	1	0	511	
13	1	1	1	0	511	
14	1	1	1	0	511	
15	1	1	1	0	511	
0	1	1	1	0	512	
1	1	1	1	0	511	
2	1	1	1	0	512	
3	1	1	1	0	513	
4	1	1	1	0	512	
5	1	1	1	0	513	
6	1	1	1	0	514	
7	1	1	1	0	515	
8	1	1	1	0	514	
9	1	1	1	0	515	
10	1	1	1	0	516	
11	1	1	1	0	516	
12	1	1	1	0	518	
13	1	1	1	0	519	
14	1	1	1	0	520	
15	1	1	1	0	520	
0	1	1	1	0	520	
1	1	1	1	0	521	
2	1	1	1	0	521	
3	1	1	1	0	520	
4	1	1	1	0	519	
5	1	1	1	0	519	
6	1	1	1	0	519	
7	1	1	1	0	520	
8	1	1	1	0	521	
9	1	1	1	0	521	
10	1	1	1	0	521	
11	1	1	1	0	522	
12	1	1	1	0	522	
13	1	1	1	0	522	
14	1	1	1	0	522	
15	1	1	1	0	523	
0	1	1	1	0	523	
1	1	1	1	0	524	
2	1	1	1	0	524	
3	1	1	1	0	525	
4	1	1	1	0	526	
5	1	1	1	0	527	
6	1	1	1	0	527	
7	1	1	1	0	528	
8	1	1	1	0	528	
9	1	1	1	0	529	
10	1	1	1	0	528	
11	1	1	1	0	528	
12	1	1	1	0	527	
13	1	1	1	0	527	
14	1	1	1	0	527	
15	1	1	1	0	527	
0	1	1	1	0	525	
1	1	1	1	0	524	
2	1	1	1	0	524	
3	1	1	1	0	522	
4	1	1	1	0	521	
5	1	1	1	0	522	
6	1	1	1	0	522	
7	1	1	1	0	522	
8	1	1	1	0	523	
9	1	1	1	0	522	
10	1	1	1	0	523	
11	1	1	1	0	522	
12	1	1	1	0	522	
13	1	1	1	0	522	
14	1	1	1	0	522	
15	1	1	1	0	521	
0	1	1	1	0	520	
1	1	1	1	0	519	
2	1	1	1	0	518	
3	1	1	1	0	518	
4	1	1	1	0	516	
5	1	1	1	0	515	
6	1	1	1	0	514	
7	1	1	1	0	513	
8	1	1	1	0	512	
9	1	1	1	0	512	
10	1	1	1	0	511	
11	1	1	1	0	510	
12	1	1	1	0	508	
13	1	1	1	0	507	
14	1	1	1	0	505	
15	1	1	1	0	504	
0	1	1	1	0	503	
1	1	1	1	0	503	
2	1	1	1	0	502	
3	1	1	1	0	502	
4	1	1	1	0	500	
5	1	1	1	0	500	
6	1	1	1	0	499	
7	1	1	1	0	498	
8	1	1	1	0	498	
9	1	1	1	0	497	
10	1	1	1	0	497	
11	1	1	1	0	497	
12	1	1	1	0	497	
13	1	1	1	0	497	
14	1	1	1	0	497	
15	1	1	1	0	498	
0	1	1	1	0	498	
1	1	1	1	0	498	
2	1	1	1	0	498	
3	1	1	1	0	497	
4	1	1	1	0	497	
5	1	1	1	0	497	
6	1	1	1	0	497	
7	1	1	1	0	497	
8	1	1	1	0	497	
9	1	1	1	0	497	
10	1	1	1	0	497	
11	1	1	1	0	498	
12	1	1	1	0	498	
13	1	1	1	0	498	
14	1	1	1	0	499	
15	1	1	1	0	499	
0	1	1	1	0	499	
1	1	1	1	0	500	
2	1	1	1	0	500	
3	1	1	1	0	500	
4	1	1	1	0	500	
5	1	1	1	0	499	
6	1	1	1	0	499	
7	1	1	1	0	499	
8	1	1	1	0	500	
9	1	1	1	0	500	
10	1	1	1	0	500	
11	1	1	1	0	500	
12	1	1	1	0	501	
13	1	1	1	0	501	
14	1	1	1	0	502	
15	1	1	1	0	502	
0	1	1	1	0	502	
1	1	1	1	0	502	
2	1	1	1	0	502	
3	1	1	1	0	502	
4	1	1	1	0	503	
5	1	1	1	0	504	
6	1	1	1	0	504	
7	1	1	1	0	503	
8	1	1	1	0	504	
9	1	1	1	0	504	
10	1	1	1	0	504	
11	1	1	1	0	504	
12	1	1	1	0	504	
13	1	1	1	0	504	
14	1	1	1	0	504	
15	1	1	1	0	504	
0	1	1	1	0	504	
1	1	1	1	0	504	
2	1	1	1	0	504	
3	1	1	1	0	504	
4	1	1	1	0	503	
5	1	1	1	0	503	
6	1	1	1	0	503	
7	1	1	1	0	503	
8	1	1	1	0	503	
9	1	1	1	0	504	
10	1	1	1	0	504	
11	1	1	1	0	504	
12	1	1	1	0	505	
13	1	1	1	0	504	
14	1	1	1	0	504	
15	1	1	1	0	504	
0	1	1	1	0	503	
1	1	1	1	0	503	
2	1	1	1	0	503	
3	1	1	1	0	502	
4	1	1	1	0	502	
5	1	1	1	0	501	
6	1	1	1	0	501	
7	1	1	1	0	503	
8	1	1	1	0	505	
9	1	1	1	0	508	
10	1	1	1	0	512	
11	1	1	1	0	516	
12	1	1	1	0	520	
13	1	1	1	0	524	
14	1	1	1	0	529	
15	1	1	1	0	535	
0	1	1	1	0	541	
1	1	1	1	0	548	
2	1	1	1	0	556	
3	1	1	1	0	567	
4	1	1	1	0	578	
5	1	1	1	0	590	
6	1	1	1	0	602	
7	1	1	1	0	613	
8	1	1	1	0	623	
9	1	1	1	0	633	
10	1	1	1	0	643	
11	1	1	1	0	652	
12	1	1	1	0	659	
13	1	1	1	0	666	
14	1	1	1	0	671	
15	1	1	1	0	674	
0	1	1	1	0	675	
1	1	1	1	0	675	
2	1	1	1	0	673	
3	1	1	1	0	668	
4	1	1	1	0	659	
5	1	1	1	0	647	
6	1	1	1	0	633	
7	1	1	1	0	618	
8	1	1	1	0	604	
9	1	1	1	0	589	
10	1	1	1	0	575	
11	1	1	1	0	560	
12	1	1	1	0	546	
13	1	1	1	0	532	
14	1	1	1	0	518	
15	1	1	1	0	504	
0	1	1	1	0	491	
1	1	1	1	0	477	
2	1	1	1	0	464	
3	1	1	1	0	453	
4	1	1	1	0	443	
5	1	1	1	0	434	
6	1	1	1	0	428	
7	1	1	1	0	423	
8	1	1	1	0	422	
9	1	1	1	0	422	
10	1	1	1	0	423	
11	1	1	1	0	425	
12	1	1	1	0	427	
13	1	1	1	0	429	
14	1	1	1	0	433	
15	1	1	1	0	437	
0	1	1	1	0	440	
1	1	1	1	0	444	
2	1	1	1	0	448	
3	1	1	1	0	452	
4	1	1	1	0	456	
5	1	1	1	0	460	
6	1	1	1	0	464	
7	1	1	1	0	467	
8	1	1	1	0	471	
9	1	1	1	0	473	
10	1	1	1	0	475	
11	1	1	1	0	476	
12	1	1	1	0	478	
13	1	1	1	0	480	
14	1	1	1	0	481	
15	1	1	1	0	483	
0	1	1	1	0	484	
1	1	1	1	0	485	
2	1	1	1	0	486	
3	1	1	1	0	487	
4	1	1	1	0	488	
5	1	1	1	0	488	
6	1	1	1	0	489	
7	1	1	1	0	489	
8	1	1	1	0	489	
9	1	1	1	0	490	
10	1	1	1	0	492	
11	1	1	1	0	492	
12	1	1	1	0	494	
13	1	1	1	0	494	
14	1	1	1	0	495	
15	1	1	1	0	495	
0	1	1	1	0	495	
1	1	1	1	0	495	
2	1	1	1	0	496	
3	1	1	1	0	496	
4	1	1	1	0	496	
5	1	1	1	0	497	
6	1	1	1	0	497	
7	1	1	1	0	498	
8	1	1	1	0	499	
9	1	1	1	0	499	
10	1	1	1	0	499	
11	1	1	1	0	499	
12	1	1	1	0	499	
13	1	1	1	0	499	
14	1	1	1	0	499	
15	1	1	1	0	499	
0	1	1	1	0	500	
1	1	1	1	0	500	
2	1	1	1	0	500	
3	1	1	1	0	501	
4	1	1	1	0	502	
5	1	1	1	0	502	
6	1	1	1	0	502	
7	1	1	1	0	503	
8	1	1	1	0	503	
9	1	1	1	0	503	
10	1	1	1	0	503	
11	1	1	1	0	504	
12	1	1	1	0	504	
13	1	1	1	0	504	
14	1	1	1	0	504	
15	1	1	1	0	504	
0	1	1	1	0	504	
1	1	1	1	0	505	
2	1	1	1	0	505	
3	1	1	1	0	505	
4	1	1	1	0	505	
5	1	1	1	0	505	
6	1	1	1	0	505	
7	1	1	1	0	506	
8	1	1	1	0	506	
9	1	1	1	0	506	
10	1	1	1	0	506	
11	1	1	1	0	507	
12	1	1	1	0	507	
13	1	1	1	0	508	
14	1	1	1	0	508	
15	1	1	1	0	510	
0	1	1	1	0	510	
1	1	1	1	0	509	
2	1	1	1	0	510	
3	1	1	1	0	510	
4	1	1	1	0	510	
5	1	1	1	0	510	
6	1	1	1	0	509	
7	1	1	1	0	509	
8	1	1	1	0	510	
9	1	1	1	0	510	
10	1	1	1	0	511	
11	1	1	1	0	511	
12	1	1	1	0	511	
13	1	1	1	0	511	
14	1	1	1	0	511	
15	1	1	1	0	511	
0	1	1	1	0	511	
1	1	1	1	0	511	
2	1	1	1	0	512	
3	1	1	1	0	512	
4	1	1	1	0	512	
5	1	1	1	0	513	
6	1	1	1	0	513	
7	1	1	1	0	512	
8	1	1	1	0	512	
9	1	1	1	0	512	
10	1	1	1	0	512	
11	1	1	1	0	512	
12	1	1	1	0	512	
13	1	1	1	0	512	
14	1	1	1	0	513	
15	1	1	1	0	514	
0	1	1	1	0	514	
1	1	1	1	0	514	
2	1	1	1	0	514	
3	1	1	1	0	514	
4	1	1	1	0	514	
5	1	1	1	0	515	
6	1	1	1	0	516	
7	1	1	1	0	516	
8	1	1	1	0	517	
9	1	1	1	0	518	
10	1	1	1	0	517	
11	1	1	1	0	517	
12	1	1	1	0	517	
13	1	1	1	0	518	
14	1	1	1	0	517	
15	1	1	1	0	518	
0	1	1	1	0	519	
1	1	1	1	0	519	
2	1	1	1	0	519	
3	1	1	1	0	520	
4	1	1	1	0	521	
5	1	1	1	0	522	
6	1	1	1	0	522	
7	1	1	1	0	522	
8	1	1	1	0	522	
9	1	1	1	0	523	
10	1	1	1	0	524	
11	1	1	1	0	524	
12	1	1	1	0	524	
13	1	1	1	0	524	
14	1	1	1	0	525	
15	1	1	1	0	525	
0	1	1	1	0	524	
1	1	1	1	0	524	
2	1	1	1	0	525	
3	1	1	1	0	526	
4	1	1	1	0	527	
5	1	1	1	0	527	
6	1	1	1	0	527	
7	1	1	1	0	527	
8	1	1	1	0	527	
9	1	1	1	0	527	
10	1	1	1	0	528	
11	1	1	1	0	528	
12	1	1	1	0	528	
13	1	1	1	0	529	
14	1	1	1	0	529	
15	1	1	1	0	529	
0	1	1	1	0	528	
1	1	1	1	0	529	
2	1	1	1	0	529	
3	1	1	1	0	530	
4	1	1	1	0	530	
5	1	1	1	0	529	
6	1	1	1	0	530	
7	1	1	1	0	530	
8	1	1	1	0	530	
9	1	1	1	0	530	
10	1	1	1	0	530	
11	1	1	1	0	530	
12	1	1	1	0	529	
13	1	1	1	0	529	
14	1	1	1	0	529	
15	1	1	1	0	529	
0	1	1	1	0	529	
1	1	1	1	0	529	
2	1	1	1	0	530	
3	1	1	1	0	529	
4	1	1	1	0	530	
5	1	1	1	0	530	
6	1	1	1	0	530	
7	1	1	1	0	530	
8	1	1	1	0	529	
9	1	1	1	0	529	
10	1	1	1	0	530	
11	1	1	1	0	531	
12	1	1	1	0	531	
13	1	1	1	0	530	
14	1	1	1	0	528	
15	1	1	1	0	528	
0	1	1	1	0	529	
1	1	1	1	0	529	
2	1	1	1	0	528	
3	1	1	1	0	528	
4	1	1	1	0	528	
5	1	1	1	0	528	
6	1	1	1	0	527	
7	1	1	1	0	526	
8	1	1	1	0	525	
9	1	1	1	0	524	
10	1	1	1	0	523	
11	1	1	1	0	522	
12	1	1	1	0	521	
13	1	1	1	0	520	
14	1	1	1	0	519	
15	1	1	1	0	518	
0	1	1	1	0	516	
1	1	1	1	0	515	
2	1	1	1	0	513	
3	1	1	1	0	511	
4	1	1	1	0	510	
5	1	1	1	0	508	
6	1	1	1	0	506	
7	1	1	1	0	505	
8	1	1	1	0	504	
9	1	1	1	0	502	
10	1	1	1	0	500	
11	1	1	1	0	498	
12	1	1	1	0	496	
13	1	1	1	0	495	
14	1	1	1	0	492	
15	1	1	1	0	490	
0	1	1	1	0	488	
1	1	1	1	0	487	
2	1	1	1	0	486	
3	1	1	1	0	484	
4	1	1	1	0	483	
5	1	1	1	0	481	
6	1	1	1	0	479	
7	1	1	1	0	479	
8	1	1	1	0	478	
9	1	1	1	0	476	
10	1	1	1	0	475	
11	1	1	1	0	473	
12	1	1	1	0	472	
13	1	1	1	0	472	
14	1	1	1	0	471	
15	1	1	1	0	470	
0	1	1	1	0	470	
1	1	1	1	0	470	
2	1	1	1	0	469	
3	1	1	1	0	469	
4	1	1	1	0	468	
5	1	1	1	0	467	
6	1	1	1	0	467	
7	1	1	1	0	467	
8	1	1	1	0	468	
9	1	1	1	0	468	
10	1	1	1	0	467	
11	1	1	1	0	468	
12	1	1	1	0	468	
13	1	1	1	0	468	
14	1	1	1	0	467	
15	1	1	1	0	467	
0	1	1	1	0	467	
1	1	1	1	0	467	
2	1	1	1	0	467	
3	1	1	1	0	467	
4	1	1	1	0	467	
5	1	1	1	0	467	
6	1	1	1	0	467	
7	1	1	1	0	467	
8	1	1	1	0	467	
9	1	1	1	0	466	
10	1	1	1	0	467	
11	1	1	1	0	467	
12	1	1	1	0	468	
13	1	1	1	0	468	
14	1	1	1	0	469	
15	1	1	1	0	470	
0	1	1	1	0	470	
1	1	1	1	0	471	
2	1	1	1	0	471	
3	1	1	1	0	471	
4	1	1	1	0	471	
5	1	1	1	0	471	
6	1	1	1	0	472	
7	1	1	1	0	472	
8	1	1	1	0	473	
9	1	1	1	0	473	
10	1	1	1	0	474	
11	1	1	1	0	475	
12	1	1	1	0	476	
13	1	1	1	0	476	
14	1	1	1	0	476	
15	1	1	1	0	476	
0	1	1	1	0	476	
1	1	1	1	0	476	
2	1	1	1	0	476	
3	1	1	1	0	476	
4	1	1	1	0	478	
5	1	1	1	0	478	
6	1	1	1	0	478	
7	1	1	1	0	478	
8	1	1	1	0	479	
9	1	1	1	0	480	
10	1	1	1	0	481	
11	1	1	1	0	481	
12	1	1	1	0	482	
13	1	1	1	0	483	
14	1	1	1	0	483	
15	1	1	1	0	484	
0	1	1	1	0	484	
1	1	1	1	0	484	
2	1	1	1	0	484	
3	1	1	1	0	485	
4	1	1	1	0	486	
5	1	1	1	0	487	
6	1	1	1	0	489	
7	1	1	1	0	490	
8	1	1	1	0	491	
9	1	1	1	0	491	
10	1	1	1	0	491	
11	1	1	1	0	490	
12	1	1	1	0	490	
13	1	1	1	0	491	
14	1	1	1	0	491	
15	1	1	1	0	491	
0	1	1	1	0	491	
1	1	1	1	0	492	
2	1	1	1	0	493	
3	1	1	1	0	494	
4	1	1	1	0	494	
5	1	1	1	0	494	
6	1	1	1	0	495	
7	1	1	1	0	495	
8	1	1	1	0	495	
9	1	1	1	0	495	
10	1	1	1	0	496	
11	1	1	1	0	495	
12	1	1	1	0	496	
13	1	1	1	0	497	
14	1	1	1	0	498	
15	1	1	1	0	497	
0	1	1	1	0	498	
1	1	1	1	0	497	
2	1	1	1	0	497	
3	1	1	1	0	498	
4	1	1	1	0	499	
5	1	1	1	0	498	
6	1	1	1	0	498	
7	1	1	1	0	499	
8	1	1	1	0	499	
9	1	1	1	0	499	
10	1	1	1	0	499	
11	1	1	1	0	500	
12	1	1	1	0	501	
13	1	1	1	0	502	
14	1	1	1	0	503	
15	1	1	1	0	503	
0	1	1	1	0	503	
1	1	1	1	0	504	
2	1	1	1	0	504	
3	1	1	1	0	504	
4	1	1	1	0	504	
5	1	1	1	0	504	
6	1	1	1	0	505	
7	1	1	1	0	505	
8	1	1	1	0	505	
9	1	1	1	0	505	
10	1	1	1	0	505	
11	1	1	1	0	506	
12	1	1	1	0	506	
13	1	1	1	0	506	
14	1	1	1	0	506	
15	1	1	1	0	506	
0	1	1	1	0	505	
1	1	1	1	0	506	
2	1	1	1	0	506	
3	1	1	1	0	507	
4	1	1	1	0	507	
5	1	1	1	0	507	
6	1	1	1	0	507	
7	1	1	1	0	507	
8	1	1	1	0	507	
9	1	1	1	0	507	
10	1	1	1	0	507	
11	1	1	1	0	508	
12	1	1	1	0	508	
13	1	1	1	0	510	
14	1	1	1	0	510	
15	1	1	1	0	511	
0	1	1	1	0	511	
1	1	1	1	0	510	
2	1	1	1	0	510	
3	1	1	1	0	510	
4	1	1	1	0	510	
5	1	1	1	0	510	
6	1	1	1	0	511	
7	1	1	1	0	510	
8	1	1	1	0	510	
9	1	1	1	0	510	
10	1	1	1	0	510	
11	1	1	1	0	511	
12	1	1	1	0	512	
13	1	1	1	0	511	
14	1	1	1	0	512	
15	1	1	1	0	512	
0	1	1	1	0	512	
1	1	1	1	0	511	
2	1	1	1	0	511	
3	1	1	1	0	511	
4	1	1	1	0	512	
5	1	1	1	0	513	
6	1	1	1	0	514	
7	1	1	1	0	514	
8	1	1	1	0	513	
9	1	1	1	0	513	
10	1	1	1	0	513	
11	1	1	1	0	513	
12	1	1	1	0	512	
13	1	1	1	0	512	
14	1	1	1	0	512	
15	1	1	1	0	512	
0	1	1	1	0	512	
1	1	1	1	0	511	
2	1	1	1	0	512	
3	1	1	1	0	512	
4	1	1	1	0	512	
5	1	1	1	0	512	
6	1	1	1	0	512	
7	1	1	1	0	512	
8	1	1	1	0	512	
9	1	1	1	0	511	
10	1	1	1	0	512	
11	1	1	1	0	511	
12	1	1	1	0	511	
13	1	1	1	0	512	
14	1	1	1	0	512	
15	1	1	1	0	513	
0	1	1	1	0	513	
1	1	1	1	0	513	
2	1	1	1	0	513	
3	1	1	1	0	512	
4	1	1	1	0	512	
5	1	1	1	0	512	
6	1	1	1	0	512	
7	1	1	1	0	514	
8	1	1	1	0	514	
9	1	1	1	0	514	
10	1	1	1	0	513	
11	1	1	1	0	514	
12	1	1	1	0	514	
13	1	1	1	0	513	
14	1	1	1	0	513	
15	1	1	1	0	513	
0	1	1	1	0	514	
1	1	1	1	0	514	
2	1	1	1	0	512	
3	1	1	1	0	512	
4	1	1	1	0	511	
5	1	1	1	0	512	
6	1	1	1	0	512	
7	1	1	1	0	511	
8	1	1	1	0	512	
9	1	1	1	0	512	
10	1	1	1	0	512	
11	1	1	1	0	512	
12	1	1	1	0	512	
13	1	1	1	0	512	
14	1	1	1	0	512	
15	1	1	1	0	512	
0	1	1	1	0	512	
1	1	1	1	0	513	
2	1	1	1	0	514	
3	1	1	1	0	514	
4	1	1	1	0	514	
5	1	1	1	0	515	
6	1	1	1	0	515	
7	1	1	1	0	515	
8	1	1	1	0	515	
9	1	1	1	0	516	
10	1	1	1	0	515	
11	1	1	1	0	514	
12	1	1	1	0	515	
13	1	1	1	0	515	
14	1	1	1	0	515	
15	1	1	1	0	515	
0	1	1	1	0	515	
1	1	1	1	0	515	
2	1	1	1	0	515	
3	1	1	1	0	515	
4	1	1	1	0	514	
5	1	1	1	0	513	
6	1	1	1	0	514	
7	1	1	1	0	513	
8	1	1	1	0	513	
9	1	1	1	0	513	
10	1	1	1	0	514	
11	1	1	1	0	513	
12	1	1	1	0	514	
13	1	1	1	0	513	
14	1	1	1	0	513	
15	1	1	1	0	514	
0	1	1	1	0	515	
1	1	1	1	0	514	
2	1	1	1	0	513	
3	1	1	1	0	513	
4	1	1	1	0	513	
5	1	1	1	0	513	
6	1	1	1	0	513	
7	1	1	1	0	512	
8	1	1	1	0	512	
9	1	1	1	0	512	
10	1	1	1	0	512	
11	1	1	1	0	513	
12	1	1	1	0	513	
13	1	1	1	0	512	
14	1	1	1	0	512	
15	1	1	1	0	513	
0	1	1	1	0	513	
1	1	1	1	0	514	
2	1	1	1	0	514	
3	1	1	1	0	514	
4	1	1	1	0	515	
5	1	1	1	0	514	
6	1	1	1	0	514	
7	1	1	1	0	515	
8	1	1	1	0	514	
9	1	1	1	0	515	
10	1	1	1	0	515	
11	1	1	1	0	515	
12	1	1	1	0	514	
13	1	1	1	0	514	
14	1	1	1	0	514	
15	1	1	1	0	513	
0	1	1	1	0	515	
1	1	1	1	0	515	
2	1	1	1	0	515	
3	1	1	1	0	516	
4	1	1	1	0	517	
5	1	1	1	0	516	
6	1	1	1	0	517	
7	1	1	1	0	517	
8	1	1	1	0	518	
9	1	1	1	0	519	
10	1	1	1	0	520	
11	1	1	1	0	520	
12	1	1	1	0	520	
13	1	1	1	0	521	
14	1	1	1	0	521	
15	1	1	1	0	521	
0	1	1	1	0	521	
1	1	1	1	0	521	
2	1	1	1	0	522	
3	1	1	1	0	522	
4	1	1	1	0	523	
5	1	1	1	0	524	
6	1	1	1	0	524	
7	1	1	1	0	524	
8	1	1	1	0	524	
9	1	1	1	0	525	
10	1	1	1	0	526	
11	1	1	1	0	526	
12	1	1	1	0	527	
13	1	1	1	0	528	
14	1	1	1	0	528	
15	1	1	1	0	527	
0	1	1	1	0	527	
1	1	1	1	0	527	
2	1	1	1	0	527	
3	1	1	1	0	527	
4	1	1	1	0	527	
5	1	1	1	0	528	
6	1	1	1	0	529	
7	1	1	1	0	530	
8	1	1	1	0	530	
9	1	1	1	0	531	
10	1	1	1	0	531	
11	1	1	1	0	531	
12	1	1	1	0	531	
13	1	1	1	0	532	
14	1	1	1	0	532	
15	1	1	1	0	533	
0	1	1	1	0	534	
1	1	1	1	0	535	
2	1	1	1	0	536	
3	1	1	1	0	536	
4	1	1	1	0	537	
5	1	1	1	0	538	
6	1	1	1	0	538	
7	1	1	1	0	539	
8	1	1	1	0	538	
9	1	1	1	0	536	
10	1	1	1	0	536	
11	1	1	1	0	534	
12	1	1	1	0	533	
13	1	1	1	0	532	
14	1	1	1	0	532	
15	1	1	1	0	532	
0	1	1	1	0	531	
1	1	1	1	0	531	
2	1	1	1	0	531	
3	1	1	1	0	531	
4	1	1	1	0	531	
5	1	1	1	0	531	
6	1	1	1	0	531	
7	1	1	1	0	532	
8	1	1	1	0	533	
9	1	1	1	0	533	
10	1	1	1	0	532	
11	1	1	1	0	531	
12	1	1	1	0	530	
13	1	1	1	0	528	
14	1	1	1	0	527	
15	1	1	1	0	527	
0	1	1	1	0	526	
1	1	1	1	0	525	
2	1	1	1	0	524	
3	1	1	1	0	524	
4	1	1	1	0	523	
5	1	1	1	0	523	
6	1	1	1	0	521	
7	1	1	1	0	520	
8	1	1	1	0	518	
9	1	1	1	0	518	
10	1	1	1	0	517	
11	1	1	1	0	516	
12	1	1	1	0	515	
13	1	1	1	0	513	
14	1	1	1	0	513	
15	1	1	1	0	513	
0	1	1	1	0	513	
1	1	1	1	0	512	
2	1	1	1	0	511	
3	1	1	1	0	510	
4	1	1	1	0	510	
5	1	1	1	0	510	
6	1	1	1	0	510	
7	1	1	1	0	510	
8	1	1	1	0	510	
9	1	1	1	0	509	
10	1	1	1	0	510	
11	1	1	1	0	510	
12	1	1	1	0	510	
13	1	1	1	0	510	
14	1	1	1	0	512	
15	1	1	1	0	513	
0	1	1	1	0	513	
1	1	1	1	0	512	
2	1	1	1	0	512	
3	1	1	1	0	512	
4	1	1	1	0	512	
5	1	1	1	0	512	
6	1	1	1	0	512	
7	1	1	1	0	511	
8	1	1	1	0	510	
9	1	1	1	0	510	
10	1	1	1	0	509	
11	1	1	1	0	510	
12	1	1	1	0	510	
13	1	1	1	0	509	
14	1	1	1	0	510	
15	1	1	1	0	509	
0	1	1	1	0	510	
1	1	1	1	0	509	
2	1	1	1	0	509	
3	1	1	1	0	509	
4	1	1	1	0	510	
5	1	1	1	0	510	
6	1	1	1	0	510	
7	1	1	1	0	510	
8	1	1	1	0	510	
9	1	1	1	0	510	
10	1	1	1	0	511	
11	1	1	1	0	511	
12	1	1	1	0	512	
13	1	1	1	0	511	
14	1	1	1	0	511	
15	1	1	1	0	511	
0	1	1	1	0	511	
1	1	1	1	0	511	
2	1	1	1	0	511	
3	1	1	1	0	511	
4	1	1	1	0	510	
5	1	1	1	0	510	
6	1	1	1	0	510	
7	1	1	1	0	511	
8	1	1	1	0	510	
9	1	1	1	0	511	
10	1	1	1	0	512	
11	1	1	1	0	512	
12	1	1	1	0	512	
13	1	1	1	0	511	
14	1	1	1	0	511	
15	1	1	1	0	511	
0	1	1	1	0	510	
1	1	1	1	0	511	
2	1	1	1	0	512	
3	1	1	1	0	511	
4	1	1	1	0	511	
5	1	1	1	0	511	
6	1	1	1	0	511	
7	1	1	1	0	510	
8	1	1	1	0	510	
9	1	1	1	0	510	
10	1	1	1	0	509	
11	1	1	1	0	509	
12	1	1	1	0	509	
13	1	1	1	0	510	
14	1	1	1	0	509	
15	1	1	1	0	509	
0	1	1	1	0	508	
1	1	1	1	0	508	
2	1	1	1	0	508	
3	1	1	1	0	509	
4	1	1	1	0	510	
5	1	1	1	0	512	
6	1	1	1	0	515	
7	1	1	1	0	517	
8	1	1	1	0	521	
9	1	1	1	0	526	
10	1	1	1	0	530	
11	1	1	1	0	534	
12	1	1	1	0	538	
13	1	1	1	0	544	
14	1	1	1	0	551	
15	1	1	1	0	560	
0	1	1	1	0	569	
1	1	1	1	0	580	
2	1	1	1	0	592	
3	1	1	1	0	603	
4	1	1	1	0	615	
5	1	1	1	0	624	
6	1	1	1	0	633	
7	1	1	1	0	643	
8	1	1	1	0	651	
9	1	1	1	0	660	
10	1	1	1	0	667	
11	1	1	1	0	672	
12	1	1	1	0	676	
13	1	1	1	0	677	
14	1	1	1	0	676	
15	1	1	1	0	673	
0	1	1	1	0	668	
1	1	1	1	0	660	
2	1	1	1	0	650	
3	1	1	1	0	637	
4	1	1	1	0	622	
5	1	1	1	0	608	
6	1	1	1	0	593	
7	1	1	1	0	582	
8	1	1	1	0	567	
9	1	1	1	0	552	
10	1	1	1	0	538	
11	1	1	1	0	525	
12	1	1	1	0	512	
13	1	1	1	0	500	
14	1	1	1	0	488	
15	1	1	1	0	476	
0	1	1	1	0	464	
1	1	1	1	0	454	
2	1	1	1	0	444	
3	1	1	1	0	437	
4	1	1	1	0	432	
5	1	1	1	0	430	
6	1	1	1	0	430	
7	1	1	1	0	430	
8	1	1	1	0	431	
9	1	1	1	0	433	
10	1	1	1	0	435	
11	1	1	1	0	438	
12	1	1	1	0	440	
13	1	1	1	0	443	
14	1	1	1	0	447	
15	1	1	1	0	452	
0	1	1	1	0	456	
1	1	1	1	0	462	
2	1	1	1	0	467	
3	1	1	1	0	471	
4	1	1	1	0	475	
5	1	1	1	0	478	
6	1	1	1	0	480	
7	1	1	1	0	483	
8	1	1	1	0	485	
9	1	1	1	0	486	
10	1	1	1	0	488	
11	1	1	1	0	491	
12	1	1	1	0	493	
13	1	1	1	0	495	
14	1	1	1	0	495	
15	1	1	1	0	496	
0	1	1	1	0	495	
1	1	1	1	0	496	
2	1	1	1	0	497	
3	1	1	1	0	497	
4	1	1	1	0	498	
5	1	1	1	0	499	
6	1	1	1	0	499	
7	1	1	1	0	500	
8	1	1	1	0	501	
9	1	1	1	0	502	
10	1	1	1	0	502	
11	1	1	1	0	504	
12	1	1	1	0	505	
13	1	1	1	0	507	
14	1	1	1	0	506	
15	1	1	1	0	506	
0	1	1	1	0	507	
1	1	1	1	0	508	
2	1	1	1	0	507	
3	1	1	1	0	507	
4	1	1	1	0	508	
5	1	1	1	0	508	
6	1	1	1	0	508	
7	1	1	1	0	507	
8	1	1	1	0	506	
9	1	1	1	0	507	
10	1	1	1	0	507	
11	1	1	1	0	508	
12	1	1	1	0	509	
13	1	1	1	0	510	
14	1	1	1	0	509	
15	1	1	1	0	510	
0	1	1	1	0	510	
1	1	1	1	0	511	
2	1	1	1	0	510	
3	1	1	1	0	511	
4	1	1	1	0	511	
5	1	1	1	0	511	
6	1	1	1	0	511	
7	1	1	1	0	512	
8	1	1	1	0	511	
9	1	1	1	0	510	
10	1	1	1	0	510	
11	1	1	1	0	510	
12	1	1	1	0	510	
13	1	1	1	0	510	
14	1	1	1	0	509	
15	1	1	1	0	510	
0	1	1	1	0	511	
1	1	1	1	0	512	
2	1	1	1	0	512	
3	1	1	1	0	512	
4	1	1	1	0	512	
5	1	1	1	0	512	
6	1	1	1	0	513	
7	1	1	1	0	514	
8	1	1	1	0	514	
9	1	1	1	0	514	
10	1	1	1	0	514	
11	1	1	1	0	515	
12	1	1	1	0	515	
13	1	1	1	0	516	
14	1	1	1	0	515	
15	1	1	1	0	515	
0	1	1	1	0	515	
1	1	1	1	0	517	
2	1	1	1	0	516	
3	1	1	1	0	517	
4	1	1	1	0	518	
5	1	1	1	0	517	
6	1	1	1	0	518	
7	1	1	1	0	518	
8	1	1	1	0	518	
9	1	1	1	0	518	
10	1	1	1	0	517	
11	1	1	1	0	518	
12	1	1	1	0	519	
13	1	1	1	0	519	
14	1	1	1	0	519	
15	1	1	1	0	520	
0	1	1	1	0	519	
1	1	1	1	0	520	
2	1	1	1	0	520	
3	1	1	1	0	520	
4	1	1	1	0	523	
5	1	1	1	0	523	
6	1	1	1	0	522	
7	1	1	1	0	523	
8	1	1	1	0	523	
9	1	1	1	0	524	
10	1	1	1	0	524	
11	1	1	1	0	524	
12	1	1	1	0	524	
13	1	1	1	0	524	
14	1	1	1	0	524	
15	1	1	1	0	525	
0	1	1	1	0	526	
1	1	1	1	0	527	
2	1	1	1	0	527	
3	1	1	1	0	527	
4	1	1	1	0	527	
5	1	1	1	0	527	
6	1	1	1	0	527	
7	1	1	1	0	528	
8	1	1	1	0	528	
9	1	1	1	0	528	
10	1	1	1	0	528	
11	1	1	1	0	528	
12	1	1	1	0	528	
13	1	1	1	0	528	
14	1	1	1	0	528	
15	1	1	1	0	527	
0	1	1	1	0	526	
1	1	1	1	0	527	
2	1	1	1	0	528	
3	1	1	1	0	528	
4	1	1	1	0	528	
5	1	1	1	0	528	
6	1	1	1	0	528	
7	1	1	1	0	529	
8	1	1	1	0	528	
9	1	1	1	0	529	
10	1	1	1	0	529	
11	1	1	1	0	529	
12	1	1	1	0	531	
13	1	1	1	0	533	
14	1	1	1	0	534	
15	1	1	1	0	533	
0	1	1	1	0	532	
1	1	1	1	0	532	
2	1	1	1	0	531	
3	1	1	1	0	532	
4	1	1	1	0	533	
5	1	1	1	0	534	
6	1	1	1	0	535	
7	1	1	1	0	536	
8	1	1	1	0	536	
9	1	1	1	0	536	
10	1	1	1	0	536	
11	1	1	1	0	536	
12	1	1	1	0	536	
13	1	1	1	0	536	
14	1	1	1	0	536	
15	1	1	1	0	536	
0	1	1	1	0	536	
1	1	1	1	0	537	
2	1	1	1	0	539	
3	1	1	1	0	538	
4	1	1	1	0	537	
5	1	1	1	0	537	
6	1	1	1	0	536	
7	1	1	1	0	536	
8	1	1	1	0	537	
9	1	1	1	0	538	
10	1	1	1	0	537	
11	1	1	1	0	536	
12	1	1	1	0	537	
13	1	1	1	0	538	
14	1	1	1	0	539	
15	1	1	1	0	539	
0	1	1	1	0	539	
1	1	1	1	0	538	
2	1	1	1	0	538	
3	1	1	1	0	538	
4	1	1	1	0	538	
5	1	1	1	0	537	
6	1	1	1	0	537	
7	1	1	1	0	538	
8	1	1	1	0	536	
9	1	1	1	0	537	
10	1	1	1	0	537	
11	1	1	1	0	537	
12	1	1	1	0	537	
13	1	1	1	0	537	
14	1	1	1	0	539	
15	1	1	1	0	539	
0	1	1	1	0	538	
1	1	1	1	0	537	
2	1	1	1	0	536	
3	1	1	1	0	535	
4	1	1	1	0	534	
5	1	1	1	0	534	
6	1	1	1	0	532	
7	1	1	1	0	531	
8	1	1	1	0	531	
9	1	1	1	0	529	
10	1	1	1	0	527	
11	1	1	1	0	525	
12	1	1	1	0	526	
13	1	1	1	0	524	
14	1	1	1	0	521	
15	1	1	1	0	519	
0	1	1	1	0	516	
1	1	1	1	0	515	
2	1	1	1	0	514	
3	1	1	1	0	512	
4	1	1	1	0	510	
5	1	1	1	0	509	
6	1	1	1	0	508	
7	1	1	1	0	507	
8	1	1	1	0	505	
9	1	1	1	0	504	
10	1	1	1	0	501	
11	1	1	1	0	499	
12	1	1	1	0	497	
13	1	1	1	0	496	
14	1	1	1	0	494	
15	1	1	1	0	492	
0	1	1	1	0	491	
1	1	1	1	0	489	
2	1	1	1	0	488	
3	1	1	1	0	487	
4	1	1	1	0	487	
5	1	1	1	0	486	
6	1	1	1	0	485	
7	1	1	1	0	483	
8	1	1	1	0	483	
9	1	1	1	0	483	
10	1	1	1	0	480	
11	1	1	1	0	479	
12	1	1	1	0	479	
13	1	1	1	0	477	
14	1	1	1	0	477	
15	1	1	1	0	477	
0	1	1	1	0	475	
1	1	1	1	0	475	
2	1	1	1	0	475	
3	1	1	1	0	476	
4	1	1	1	0	476	
5	1	1	1	0	475	
6	1	1	1	0	474	
7	1	1	1	0	472	
8	1	1	1	0	472	
9	1	1	1	0	471	
10	1	1	1	0	472	
11	1	1	1	0	472	
12	1	1	1	0	473	
13	1	1	1	0	474	
14	1	1	1	0	474	
15	1	1	1	0	473	
0	1	1	1	0	473	
1	1	1	1	0	474	
2	1	1	1	0	474	
3	1	1	1	0	474	
4	1	1	1	0	474	
5	1	1	1	0	474	
6	1	1	1	0	473	
7	1	1	1	0	474	
8	1	1	1	0	475	
9	1	1	1	0	475	
10	1	1	1	0	475	
11	1	1	1	0	476	
12	1	1	1	0	477	
13	1	1	1	0	477	
14	1	1	1	0	477	
15	1	1	1	0	477	
0	1	1	1	0	478	
1	1	1	1	0	479	
2	1	1	1	0	480	
3	1	1	1	0	480	
4	1	1	1	0	478	
5	1	1	1	0	478	
6	1	1	1	0	480	
7	1	1	1	0	480	
8	1	1	1	0	481	
9	1	1	1	0	481	
10	1	1	1	0	482	
11	1	1	1	0	483	
12	1	1	1	0	482	
13	1	1	1	0	481	
14	1	1	1	0	481	
15	1	1	1	0	481	
0	1	1	1	0	482	
1	1	1	1	0	482	
2	1	1	1	0	483	
3	1	1	1	0	483	
4	1	1	1	0	484	
5	1	1	1	0	483	
6	1	1	1	0	483	
7	1	1	1	0	484	
8	1	1	1	0	484	
9	1	1	1	0	484	
10	1	1	1	0	483	
11	1	1	1	0	484	
12	1	1	1	0	486	
13	1	1	1	0	487	
14	1	1	1	0	486	
15	1	1	1	0	486	
0	1	1	1	0	487	
1	1	1	1	0	487	
2	1	1	1	0	487	
3	1	1	1	0	487	
4	1	1	1	0	488	
5	1	1	1	0	487	
6	1	1	1	0	488	
7	1	1	1	0	489	
8	1	1	1	0	489	
9	1	1	1	0	488	
10	1	1	1	0	488	
11	1	1	1	0	488	
12	1	1	1	0	489	
13	1	1	1	0	489	
14	1	1	1	0	489	
15	1	1	1	0	489	
0	1	1	1	0	491	
1	1	1	1	0	491	
2	1	1	1	0	491	
3	1	1	1	0	490	
4	1	1	1	0	492	
5	1	1	1	0	493	
6	1	1	1	0	494	
7	1	1	1	0	494	
8	1	1	1	0	495	
9	1	1	1	0	495	
10	1	1	1	0	496	
11	1	1	1	0	496	
12	1	1	1	0	496	
13	1	1	1	0	496	
14	1	1	1	0	497	
15	1	1	1	0	497	
0	1	1	1	0	497	
1	1	1	1	0	496	
2	1	1	1	0	496	
3	1	1	1	0	498	
4	1	1	1	0	499	
5	1	1	1	0	499	
6	1	1	1	0	499	
7	1	1	1	0	500	
8	1	1	1	0	502	
9	1	1	1	0	501	
10	1	1	1	0	500	
11	1	1	1	0	500	
12	1	1	1	0	500	
13	1	1	1	0	501	
14	1	1	1	0	501	
15	1	1	1	0	501	
0	1	1	1	0	500	
1	1	1	1	0	502	
2	1	1	1	0	502	
3	1	1	1	0	502	
4	1	1	1	0	502	
5	1	1	1	0	503	
6	1	1	1	0	503	
7	1	1	1	0	502	
8	1	1	1	0	502	
9	1	1	1	0	503	
10	1	1	1	0	504	
11	1	1	1	0	504	
12	1	1	1	0	504	
13	1	1	1	0	506	
14	1	1	1	0	507	
15	1	1	1	0	507	
0	1	1	1	0	508	
1	1	1	1	0	508	
2	1	1	1	0	508	
3	1	1	1	0	508	
4	1	1	1	0	508	
5	1	1	1	0	508	
6	1	1	1	0	509	
7	1	1	1	0	508	
8	1	1	1	0	508	
9	1	1	1	0	508	
10	1	1	1	0	508	
11	1	1	1	0	508	
12	1	1	1	0	509	
13	1	1	1	0	509	
14	1	1	1	0	510	
15	1	1	1	0	511	
0	1	1	1	0	511	
1	1	1	1	0	511	
2	1	1	1	0	511	
3	1	1	1	0	508	
4	1	1	1	0	508	
5	1	1	1	0	507	
6	1	1	1	0	508	
7	1	1	1	0	508	
8	1	1	1	0	508	
9	1	1	1	0	508	
10	1	1	1	0	508	
11	1	1	1	0	507	
12	1	1	1	0	506	
13	1	1	1	0	506	
14	1	1	1	0	505	
15	1	1	1	0	504	
0	1	1	1	0	504	
1	1	1	1	0	504	
2	1	1	1	0	505	
3	1	1	1	0	505	
4	1	1	1	0	504	
5	1	1	1	0	504	
6	1	1	1	0	505	
7	1	1	1	0	504	
8	1	1	1	0	504	
9	1	1	1	0	504	
10	1	1	1	0	504	
11	1	1	1	0	504	
12	1	1	1	0	504	
13	1	1	1	0	504	
14	1	1	1	0	505	
15	1	1	1	0	505	
0	1	1	1	0	505	
1	1	1	1	0	504	
2	1	1	1	0	504	
3	1	1	1	0	505	
4	1	1	1	0	505	
5	1	1	1	0	505	
6	1	1	1	0	505	
7	1	1	1	0	505	
8	1	1	1	0	504	
9	1	1	1	0	504	
10	1	1	1	0	504	
11	1	1	1	0	504	
12	1	1	1	0	504	
13	1	1	1	0	505	
14	1	1	1	0	506	
15	1	1	1	0	505	
0	1	1	1	0	506	
1	1	1	1	0	506	
2	1	1	1	0	507	
3	1	1	1	0	507	
4	1	1	1	0	507	
5	1	1	1	0	507	
6	1	1	1	0	507	
7	1	1	1	0	508	
8	1	1	1	0	507	
9	1	1	1	0	507	
10	1	1	1	0	507	
11	1	1	1	0	507	
12	1	1	1	0	508	
13	1	1	1	0	508	
14	1	1	1	0	509	
15	1	1	1	0	509	
0	1	1	1	0	510	
1	1	1	1	0	510	
2	1	1	1	0	510	
3	1	1	1	0	510	
4	1	1	1	0	510	
5	1	1	1	0	510	
6	1	1	1	0	510	
7	1	1	1	0	510	
8	1	1	1	0	509	
9	1	1	1	0	509	
10	1	1	1	0	508	
11	1	1	1	0	509	
12	1	1	1	0	510	
13	1	1	1	0	510	
14	1	1	1	0	511	
15	1	1	1	0	511	
0	1	1	1	0	512	
1	1	1	1	0	513	
2	1	1	1	0	513	
3	1	1	1	0	515	
4	1	1	1	0	515	
5	1	1	1	0	514	
6	1	1	1	0	515	
7	1	1	1	0	515	
8	1	1	1	0	516	
9	1	1	1	0	516	
10	1	1	1	0	516	
11	1	1	1	0	516	
12	1	1	1	0	516	
13	1	1	1	0	516	
14	1	1	1	0	516	
15	1	1	1	0	517	
0	1	1	1	0	517	
1	1	1	1	0	516	
2	1	1	1	0	517	
3	1	1	1	0	516	
4	1	1	1	0	515	
5	1	1	1	0	515	
6	1	1	1	0	514	
7	1	1	1	0	514	
8	1	1	1	0	515	
9	1	1	1	0	515	
10	1	1	1	0	515	
11	1	1	1	0	515	
12	1	1	1	0	515	
13	1	1	1	0	514	
14	1	1	1	0	514	
15	1	1	1	0	515	
0	1	1	1	0	515	
1	1	1	1	0	515	
2	1	1	1	0	515	
3	1	1	1	0	515	
4	1	1	1	0	514	
5	1	1	1	0	514	
6	1	1	1	0	515	
7	1	1	1	0	515	
8	1	1	1	0	514	
9	1	1	1	0	514	
10	1	1	1	0	513	
11	1	1	1	0	514	
12	1	1	1	0	516	
13	1	1	1	0	516	
14	1	1	1	0	516	
15	1	1	1	0	516	
0	1	1	1	0	516	
1	1	1	1	0	515	
2	1	1	1	0	515	
3	1	1	1	0	514	
4	1	1	1	0	515	
5	1	1	1	0	515	
6	1	1	1	0	515	
7	1	1	1	0	516	
8	1	1	1	0	515	
9	1	1	1	0	516	
10	1	1	1	0	517	
11	1	1	1	0	518	
12	1	1	1	0	517	
13	1	1	1	0	517	
14	1	1	1	0	517	
15	1	1	1	0	517	
0	1	1	1	0	519	
1	1	1	1	0	518	
2	1	1	1	0	518	
3	1	1	1	0	518	
4	1	1	1	0	517	
5	1	1	1	0	517	
6	1	1	1	0	517	
7	1	1	1	0	517	
8	1	1	1	0	517	
9	1	1	1	0	518	
10	1	1	1	0	518	
11	1	1	1	0	518	
12	1	1	1	0	519	
13	1	1	1	0	519	
14	1	1	1	0	520	
15	1	1	1	0	521	
0	1	1	1	0	521	
1	1	1	1	0	522	
2	1	1	1	0	521	
3	1	1	1	0	520	
4	1	1	1	0	521	
5	1	1	1	0	521	
6	1	1	1	0	522	
7	1	1	1	0	522	
8	1	1	1	0	524	
9	1	1	1	0	525	
10	1	1	1	0	525	
11	1	1	1	0	526	
12	1	1	1	0	526	
13	1	1	1	0	526	
14	1	1	1	0	525	
15	1	1	1	0	525	
0	1	1	1	0	526	
1	1	1	1	0	528	
2	1	1	1	0	529	
3	1	1	1	0	529	
4	1	1	1	0	531	
5	1	1	1	0	532	
6	1	1	1	0	533	
7	1	1	1	0	534	
8	1	1	1	0	534	
9	1	1	1	0	532	
10	1	1	1	0	532	
11	1	1	1	0	532	
12	1	1	1	0	531	
13	1	1	1	0	531	
14	1	1	1	0	530	
15	1	1	1	0	529	
0	1	1	1	0	527	
1	1	1	1	0	527	
2	1	1	1	0	527	
3	1	1	1	0	525	
4	1	1	1	0	526	
5	1	1	1	0	527	
6	1	1	1	0	527	
7	1	1	1	0	528	
8	1	1	1	0	528	
9	1	1	1	0	528	
10	1	1	1	0	528	
11	1	1	1	0	527	
12	1	1	1	0	527	
13	1	1	1	0	527	
14	1	1	1	0	526	
15	1	1	1	0	526	
0	1	1	1	0	525	
1	1	1	1	0	524	
2	1	1	1	0	525	
3	1	1	1	0	524	
4	1	1	1	0	523	
5	1	1	1	0	522	
6	1	1	1	0	523	
7	1	1	1	0	521	
8	1	1	1	0	520	
9	1	1	1	0	518	
10	1	1	1	0	517	
11	1	1	1	0	516	
12	1	1	1	0	515	
13	1	1	1	0	513	
14	1	1	1	0	513	
15	1	1	1	0	512	
0	1	1	1	0	511	
1	1	1	1	0	511	
2	1	1	1	0	511	
3	1	1	1	0	510	
4	1	1	1	0	511	
5	1	1	1	0	511	
6	1	1	1	0	511	
7	1	1	1	0	510	
8	1	1	1	0	509	
9	1	1	1	0	510	
10	1	1	1	0	512	
11	1	1	1	0	511	
12	1	1	1	0	512	
13	1	1	1	0	511	
14	1	1	1	0	510	
15	1	1	1	0	510	
0	1	1	1	0	511	
1	1	1	1	0	512	
2	1	1	1	0	511	
3	1	1	1	0	511	
4	1	1	1	0	511	
5	1	1	1	0	512	
6	1	1	1	0	512	
7	1	1	1	0	512	
8	1	1	1	0	512	
9	1	1	1	0	513	
10	1	1	1	0	512	
11	1	1	1	0	513	
12	1	1	1	0	513	
13	1	1	1	0	513	
14	1	1	1	0	513	
15	1	1	1	0	514	
0	1	1	1	0	514	
1	1	1	1	0	514	
2	1	1	1	0	513	
3	1	1	1	0	513	
4	1	1	1	0	512	
5	1	1	1	0	511	
6	1	1	1	0	512	
7	1	1	1	0	512	
8	1	1	1	0	512	
9	1	1	1	0	511	
10	1	1	1	0	511	
11	1	1	1	0	511	
12	1	1	1	0	512	
13	1	1	1	0	511	
14	1	1	1	0	511	
15	1	1	1	0	510	
0	1	1	1	0	509	
1	1	1	1	0	509	
2	1	1	1	0	509	
3	1	1	1	0	509	
4	1	1	1	0	509	
5	1	1	1	0	510	
6	1	1	1	0	511	
7	1	1	1	0	511	
8	1	1	1	0	511	
9	1	1	1	0	510	
10	1	1	1	0	508	
11	1	1	1	0	508	
12	1	1	1	0	509	
13	1	1	1	0	509	
14	1	1	1	0	511	
15	1	1	1	0	512	
0	1	1	1	0	511	
1	1	1	1	0	510	
2	1	1	1	0	510	
3	1	1	1	0	510	
4	1	1	1	0	511	
5	1	1	1	0	511	
6	1	1	1	0	509	
7	1	1	1	0	509	
8	1	1	1	0	509	
9	1	1	1	0	508	
10	1	1	1	0	508	
11	1	1	1	0	508	
12	1	1	1	0	508	
13	1	1	1	0	508	
14	1	1	1	0	509	
15	1	1	1	0	509	
0	1	1	1	0	509	
1	1	1	1	0	510	
2	1	1	1	0	509	
3	1	1	1	0	508	
4	1	1	1	0	509	
5	1	1	1	0	510	
6	1	1	1	0	511	
7	1	1	1	0	512	
8	1	1	1	0	516	
9	1	1	1	0	520	
10	1	1	1	0	524	
11	1	1	1	0	527	
12	1	1	1	0	531	
13	1	1	1	0	536	
14	1	1	1	0	541	
15	1	1	1	0	546	
0	1	1	1	0	553	
1	1	1	1	0	561	
2	1	1	1	0	571	
3	1	1	1	0	580	
4	1	1	1	0	591	
5	1	1	1	0	603	
6	1	1	1	0	612	
7	1	1	1	0	621	
8	1	1	1	0	629	
9	1	1	1	0	637	
10	1	1	1	0	644	
11	1	1	1	0	652	
12	1	1	1	0	658	
13	1	1	1	0	662	
14	1	1	1	0	664	
15	1	1	1	0	665	
0	1	1	1	0	666	
1	1	1	1	0	664	
2	1	1	1	0	657	
3	1	1	1	0	647	
4	1	1	1	0	636	
5	1	1	1	0	622	
6	1	1	1	0	607	
7	1	1	1	0	594	
8	1	1	1	0	582	
9	1	1	1	0	568	
10	1	1	1	0	554	
11	1	1	1	0	541	
12	1	1	1	0	527	
13	1	1	1	0	516	
14	1	1	1	0	506	
15	1	1	1	0	495	
0	1	1	1	0	484	
1	1	1	1	0	472	
2	1	1	1	0	463	
3	1	1	1	0	453	
4	1	1	1	0	444	
5	1	1	1	0	437	
6	1	1	1	0	432	
7	1	1	1	0	430	
8	1	1	1	0	430	
9	1	1	1	0	428	
10	1	1	1	0	428	
11	1	1	1	0	428	
12	1	1	1	0	432	
13	1	1	1	0	435	
14	1	1	1	0	438	
15	1	1	1	0	442	
0	1	1	1	0	445	
1	1	1	1	0	449	
2	1	1	1	0	453	
3	1	1	1	0	457	
4	1	1	1	0	461	
5	1	1	1	0	465	
6	1	1	1	0	468	
7	1	1	1	0	472	
8	1	1	1	0	475	
9	1	1	1	0	476	
10	1	1	1	0	479	
11	1	1	1	0	481	
12	1	1	1	0	483	
13	1	1	1	0	485	
14	1	1	1	0	487	
15	1	1	1	0	489	
0	1	1	1	0	492	
1	1	1	1	0	493	
2	1	1	1	0	493	
3	1	1	1	0	494	
4	1	1	1	0	495	
5	1	1	1	0	495	
6	1	1	1	0	497	
7	1	1	1	0	497	
8	1	1	1	0	496	
9	1	1	1	0	497	
10	1	1	1	0	498	
11	1	1	1	0	498	
12	1	1	1	0	498	
13	1	1	1	0	499	
14	1	1	1	0	499	
15	1	1	1	0	499	
0	1	1	1	0	499	
1	1	1	1	0	500	
2	1	1	1	0	501	
3	1	1	1	0	501	
4	1	1	1	0	501	
5	1	1	1	0	502	
6	1	1	1	0	503	
7	1	1	1	0	503	
8	1	1	1	0	503	
9	1	1	1	0	502	
10	1	1	1	0	502	
11	1	1	1	0	503	
12	1	1	1	0	504	
13	1	1	1	0	504	
14	1	1	1	0	504	
15	1	1	1	0	506	
0	1	1	1	0	506	
1	1	1	1	0	507	
2	1	1	1	0	509	
3	1	1	1	0	509	
4	1	1	1	0	509	
5	1	1	1	0	509	
6	1	1	1	0	509	
7	1	1	1	0	508	
8	1	1	1	0	508	
9	1	1	1	0	509	
10	1	1	1	0	510	
11	1	1	1	0	509	
12	1	1	1	0	509	
13	1	1	1	0	510	
14	1	1	1	0	510	
15	1	1	1	0	510	
0	1	1	1	0	511	
1	1	1	1	0	511	
2	1	1	1	0	511	
3	1	1	1	0	512	
4	1	1	1	0	512	
5	1	1	1	0	512	
6	1	1	1	0	512	
7	1	1	1	0	512	
8	1	1	1	0	512	
9	1	1	1	0	512	
10	1	1	1	0	511	
11	1	1	1	0	510	
12	1	1	1	0	511	
13	1	1	1	0	512	
14	1	1	1	0	513	
15	1	1	1	0	513	
0	1	1	1	0	512	
1	1	1	1	0	512	
2	1	1	1	0	511	
3	1	1	1	0	512	
4	1	1	1	0	513	
5	1	1	1	0	513	
6	1	1	1	0	512	
7	1	1	1	0	512	
8	1	1	1	0	512	
9	1	1	1	0	514	
10	1	1	1	0	514	
11	1	1	1	0	514	
12	1	1	1	0	515	
13	1	1	1	0	514	
14	1	1	1	0	515	
15	1	1	1	0	515	
0	1	1	1	0	516	
1	1	1	1	0	516	
2	1	1	1	0	517	
3	1	1	1	0	517	
4	1	1	1	0	517	
5	1	1	1	0	518	
6	1	1	1	0	518	
7	1	1	1	0	517	
8	1	1	1	0	516	
9	1	1	1	0	518	
10	1	1	1	0	518	
11	1	1	1	0	518	
12	1	1	1	0	519	
13	1	1	1	0	521	
14	1	1	1	0	521	
15	1	1	1	0	519	
0	1	1	1	0	520	
1	1	1	1	0	522	
2	1	1	1	0	523	
3	1	1	1	0	523	
4	1	1	1	0	522	
5	1	1	1	0	521	
6	1	1	1	0	522	
7	1	1	1	0	524	
8	1	1	1	0	524	
9	1	1	1	0	524	
10	1	1	1	0	524	
11	1	1	1	0	524	
12	1	1	1	0	525	
13	1	1	1	0	526	
14	1	1	1	0	526	
15	1	1	1	0	526	
0	1	1	1	0	526	
1	1	1	1	0	527	
2	1	1	1	0	528	
3	1	1	1	0	529	
4	1	1	1	0	529	
5	1	1	1	0	528	
6	1	1	1	0	528	
7	1	1	1	0	529	
8	1	1	1	0	529	
9	1	1	1	0	530	
10	1	1	1	0	530	
11	1	1	1	0	532	
12	1	1	1	0	533	
13	1	1	1	0	534	
14	1	1	1	0	533	
15	1	1	1	0	534	
0	1	1	1	0	534	
1	1	1	1	0	533	
2	1	1	1	0	533	
3	1	1	1	0	534	
4	1	1	1	0	535	
5	1	1	1	0	536	
6	1	1	1	0	537	
7	1	1	1	0	536	
8	1	1	1	0	536	
9	1	1	1	0	537	
10	1	1	1	0	539	
11	1	1	1	0	538	
12	1	1	1	0	539	
13	1	1	1	0	540	
14	1	1	1	0	540	
15	1	1	1	0	541	
0	1	1	1	0	540	
1	1	1	1	0	540	
2	1	1	1	0	540	
3	1	1	1	0	541	
4	1	1	1	0	541	
5	1	1	1	0	542	
6	1	1	1	0	542	
7	1	1	1	0	542	
8	1	1	1	0	542	
9	1	1	1	0	542	
10	1	1	1	0	542	
11	1	1	1	0	543	
12	1	1	1	0	543	
13	1	1	1	0	542	
14	1	1	1	0	541	
15	1	1	1	0	541	
0	1	1	1	0	540	
1	1	1	1	0	540	
2	1	1	1	0	541	
3	1	1	1	0	542	
4	1	1	1	0	542	
5	1	1	1	0	541	
6	1	1	1	0	542	
7	1	1	1	0	542	
8	1	1	1	0	541	
9	1	1	1	0	540	
10	1	1	1	0	539	
11	1	1	1	0	539	
12	1	1	1	0	540	
13	1	1	1	0	541	
14	1	1	1	0	540	
15	1	1	1	0	539	
0	1	1	1	0	538	
1	1	1	1	0	537	
2	1	1	1	0	537	
3	1	1	1	0	537	
4	1	1	1	0	536	
5	1	1	1	0	534	
6	1	1	1	0	534	
7	1	1	1	0	534	
8	1	1	1	0	532	
9	1	1	1	0	531	
10	1	1	1	0	529	
11	1	1	1	0	527	
12	1	1	1	0	526	
13	1	1	1	0	525	
14	1	1	1	0	523	
15	1	1	1	0	520	
0	1	1	1	0	519	
1	1	1	1	0	518	
2	1	1	1	0	517	
3	1	1	1	0	515	
4	1	1	1	0	514	
5	1	1	1	0	512	
6	1	1	1	0	510	
7	1	1	1	0	508	
8	1	1	1	0	506	
9	1	1	1	0	504	
10	1	1	1	0	502	
11	1	1	1	0	499	
12	1	1	1	0	498	
13	1	1	1	0	497	
14	1	1	1	0	495	
15	1	1	1	0	493	
0	1	1	1	0	492	
1	1	1	1	0	490	
2	1	1	1	0	490	
3	1	1	1	0	489	
4	1	1	1	0	488	
5	1	1	1	0	486	
6	1	1	1	0	485	
7	1	1	1	0	485	
8	1	1	1	0	484	
9	1	1	1	0	482	
10	1	1	1	0	481	
11	1	1	1	0	480	
12	1	1	1	0	478	
13	1	1	1	0	478	
14	1	1	1	0	478	
15	1	1	1	0	477	
0	1	1	1	0	477	
1	1	1	1	0	476	
2	1	1	1	0	476	
3	1	1	1	0	476	
4	1	1	1	0	475	
5	1	1	1	0	474	
6	1	1	1	0	473	
7	1	1	1	0	473	
8	1	1	1	0	472	
9	1	1	1	0	472	
10	1	1	1	0	472	
11	1	1	1	0	472	
12	1	1	1	0	473	
13	1	1	1	0	473	
14	1	1	1	0	473	
15	1	1	1	0	473	
0	1	1	1	0	473	
1	1	1	1	0	472	
2	1	1	1	0	472	
3	1	1	1	0	473	
4	1	1	1	0	474	
5	1	1	1	0	475	
6	1	1	1	0	474	
7	1	1	1	0	473	
8	1	1	1	0	473	
9	1	1	1	0	474	
10	1	1	1	0	475	
11	1	1	1	0	476	
12	1	1	1	0	476	
13	1	1	1	0	476	
14	1	1	1	0	476	
15	1	1	1	0	476	
0	1	1	1	0	476	
1	1	1	1	0	476	
2	1	1	1	0	477	
3	1	1	1	0	478	
4	1	1	1	0	478	
5	1	1	1	0	479	
6	1	1	1	0	480	
7	1	1	1	0	480	
8	1	1	1	0	480	
9	1	1	1	0	481	
10	1	1	1	0	482	
11	1	1	1	0	482	
12	1	1	1	0	481	
13	1	1	1	0	482	
14	1	1	1	0	481	
15	1	1	1	0	481	
0	1	1	1	0	482	
1	1	1	1	0	482	
2	1	1	1	0	481	
3	1	1	1	0	481	
4	1	1	1	0	482	
5	1	1	1	0	482	
6	1	1	1	0	482	
7	1	1	1	0	482	
8	1	1	1	0	483	
9	1	1	1	0	482	
10	1	1	1	0	483	
11	1	1	1	0	483	
12	1	1	1	0	483	
13	1	1	1	0	482	
14	1	1	1	0	483	
15	1	1	1	0	483	
0	1	1	1	0	483	
1	1	1	1	0	482	
2	1	1	1	0	481	
3	1	1	1	0	482	
4	1	1	1	0	483	
5	1	1	1	0	484	
6	1	1	1	0	484	
7	1	1	1	0	484	
8	1	1	1	0	485	
9	1	1	1	0	486	
10	1	1	1	0	486	
11	1	1	1	0	486	
12	1	1	1	0	487	
13	1	1	1	0	487	
14	1	1	1	0	487	
15	1	1	1	0	486	
0	1	1	1	0	486	
1	1	1	1	0	485	
2	1	1	1	0	484	
3	1	1	1	0	484	
4	1	1	1	0	484	
5	1	1	1	0	484	
6	1	1	1	0	485	
7	1	1	1	0	485	
8	1	1	1	0	485	
9	1	1	1	0	487	
10	1	1	1	0	487	
11	1	1	1	0	488	
12	1	1	1	0	488	
13	1	1	1	0	488	
14	1	1	1	0	489	
15	1	1	1	0	490	
0	1	1	1	0	489	
1	1	1	1	0	491	
2	1	1	1	0	492	
3	1	1	1	0	492	
4	1	1	1	0	493	
5	1	1	1	0	492	
6	1	1	1	0	494	
7	1	1	1	0	494	
8	1	1	1	0	493	
9	1	1	1	0	492	
10	1	1	1	0	493	
11	1	1	1	0	494	
12	1	1	1	0	494	
13	1	1	1	0	495	
14	1	1	1	0	494	
15	1	1	1	0	495	
0	1	1	1	0	497	
1	1	1	1	0	496	
2	1	1	1	0	496	
3	1	1	1	0	496	
4	1	1	1	0	497	
5	1	1	1	0	497	
6	1	1	1	0	497	
7	1	1	1	0	497	
8	1	1	1	0	498	
9	1	1	1	0	499	
10	1	1	1	0	500	
11	1	1	1	0	500	
12	1	1	1	0	501	
13	1	1	1	0	500	
14	1	1	1	0	500	
15	1	1	1	0	500	
0	1	1	1	0	500	
1	1	1	1	0	501	
2	1	1	1	0	503	
3	1	1	1	0	504	
4	1	1	1	0	504	
5	1	1	1	0	505	
6	1	1	1	0	504	
7	1	1	1	0	504	
8	1	1	1	0	505	
9	1	1	1	0	505	
10	1	1	1	0	506	
11	1	1	1	0	506	
12	1	1	1	0	507	
13	1	1	1	0	507	
14	1	1	1	0	508	
15	1	1	1	0	508	
0	1	1	1	0	507	
1	1	1	1	0	506	
2	1	1	1	0	506	
3	1	1	1	0	505	
4	1	1	1	0	506	
5	1	1	1	0	507	
6	1	1	1	0	509	
7	1	1	1	0	510	
8	1	1	1	0	510	
9	1	1	1	0	509	
10	1	1	1	0	509	
11	1	1	1	0	509	
12	1	1	1	0	509	
13	1	1	1	0	509	
14	1	1	1	0	509	
15	1	1	1	0	509	
0	1	1	1	0	510	
1	1	1	1	0	510	
2	1	1	1	0	510	
3	1	1	1	0	510	
4	1	1	1	0	510	
5	1	1	1	0	510	
6	1	1	1	0	509	
7	1	1	1	0	509	
8	1	1	1	0	510	
9	1	1	1	0	511	
10	1	1	1	0	511	
11	1	1	1	0	511	
12	1	1	1	0	511	
13	1	1	1	0	511	
14	1	1	1	0	512	
15	1	1	1	0	513	
0	1	1	1	0	512	
1	1	1	1	0	511	
2	1	1	1	0	512	
3	1	1	1	0	513	
4	1	1	1	0	512	
5	1	1	1	0	512	
6	1	1	1	0	512	
7	1	1	1	0	512	
8	1	1	1	0	512	
9	1	1	1	0	512	
10	1	1	1	0	511	
11	1	1	1	0	510	
12	1	1	1	0	511	
13	1	1	1	0	511	
14	1	1	1	0	511	
15	1	1	1	0	511	
0	1	1	1	0	512	
1	1	1	1	0	512	
2	1	1	1	0	512	
3	1	1	1	0	512	
4	1	1	1	0	511	
5	1	1	1	0	511	
6	1	1	1	0	511	
7	1	1	1	0	512	
8	1	1	1	0	512	
9	1	1	1	0	512	
10	1	1	1	0	512	
11	1	1	1	0	512	
12	1	1	1	0	512	
13	1	1	1	0	511	
14	1	1	1	0	511	
15	1	1	1	0	512	
0	1	1	1	0	512	
1	1	1	1	0	512	
2	1	1	1	0	512	
3	1	1	1	0	512	
4	1	1	1	0	511	
5	1	1	1	0	510	
6	1	1	1	0	509	
7	1	1	1	0	510	
8	1	1	1	0	511	
9	1	1	1	0	510	
10	1	1	1	0	510	
11	1	1	1	0	510	
12	1	1	1	0	509	
13	1	1	1	0	509	
14	1	1	1	0	509	
15	1	1	1	0	508	
0	1	1	1	0	508	
1	1	1	1	0	508	
2	1	1	1	0	507	
3	1	1	1	0	507	
4	1	1	1	0	507	
5	1	1	1	0	508	
6	1	1	1	0	508	
7	1	1	1	0	508	
8	1	1	1	0	508	
9	1	1	1	0	507	
10	1	1	1	0	507	
11	1	1	1	0	508	
12	1	1	1	0	508	
13	1	1	1	0	508	
14	1	1	1	0	507	
15	1	1	1	0	507	
0	1	1	1	0	507	
1	1	1	1	0	507	
2	1	1	1	0	508	
3	1	1	1	0	508	
4	1	1	1	0	508	
5	1	1	1	0	508	
6	1	1	1	0	507	
7	1	1	1	0	508	
8	1	1	1	0	508	
9	1	1	1	0	507	
10	1	1	1	0	507	
11	1	1	1	0	506	
12	1	1	1	0	506	
13	1	1	1	0	506	
14	1	1	1	0	505	
15	1	1	1	0	505	
0	1	1	1	0	505	
1	1	1	1	0	506	
2	1	1	1	0	507	
3	1	1	1	0	507	
4	1	1	1	0	506	
5	1	1	1	0	507	
6	1	1	1	0	508	
7	1	1	1	0	508	
8	1	1	1	0	507	
9	1	1	1	0	506	
10	1	1	1	0	507	
11	1	1	1	0	508	
12	1	1	1	0	508	
13	1	1	1	0	506	
14	1	1	1	0	507	
15	1	1	1	0	508	
0	1	1	1	0	507	
1	1	1	1	0	508	
2	1	1	1	0	508	
3	1	1	1	0	507	
4	1	1	1	0	507	
5	1	1	1	0	508	
6	1	1	1	0	508	
7	1	1	1	0	508	
8	1	1	1	0	509	
9	1	1	1	0	509	
10	1	1	1	0	510	
11	1	1	1	0	510	
12	1	1	1	0	511	
13	1	1	1	0	511	
14	1	1	1	0	511	
15	1	1	1	0	511	
0	1	1	1	0	511	
1	1	1	1	0	511	
2	1	1	1	0	511	
3	1	1	1	0	511	
4	1	1	1	0	511	
5	1	1	1	0	511	
6	1	1	1	0	511	
7	1	1	1	0	512	
8	1	1	1	0	512	
9	1	1	1	0	512	
10	1	1	1	0	513	
11	1	1	1	0	514	
12	1	1	1	0	515	
13	1	1	1	0	516	
14	1	1	1	0	517	
15	1	1	1	0	516	
0	1	1	1	0	516	
1	1	1	1	0	517	
2	1	1	1	0	518	
3	1	1	1	0	519	
4	1	1	1	0	520	
5	1	1	1	0	520	
6	1	1	1	0	521	
7	1	1	1	0	521	
8	1	1	1	0	522	
9	1	1	1	0	522	
10	1	1	1	0	522	
11	1	1	1	0	521	
12	1	1	1	0	521	
13	1	1	1	0	521	
14	1	1	1	0	520	
15	1	1	1	0	519	
0	1	1	1	0	518	
1	1	1	1	0	518	
2	1	1	1	0	517	
3	1	1	1	0	517	
4	1	1	1	0	516	
5	1	1	1	0	516	
6	1	1	1	0	515	
7	1	1	1	0	515	
8	1	1	1	0	514	
9	1	1	1	0	514	
10	1	1	1	0	514	
11	1	1	1	0	514	
12	1	1	1	0	515	
13	1	1	1	0	513	
14	1	1	1	0	513	
15	1	1	1	0	512	
0	1	1	1	0	512	
1	1	1	1	0	511	
2	1	1	1	0	511	
3	1	1	1	0	510	
4	1	1	1	0	509	
5	1	1	1	0	508	
6	1	1	1	0	509	
7	1	1	1	0	508	
8	1	1	1	0	507	
9	1	1	1	0	506	
10	1	1	1	0	506	
11	1	1	1	0	505	
12	1	1	1	0	505	
13	1	1	1	0	504	
14	1	1	1	0	504	
15	1	1	1	0	504	
0	1	1	1	0	503	
1	1	1	1	0	503	
2	1	1	1	0	501	
3	1	1	1	0	499	
4	1	1	1	0	498	
5	1	1	1	0	498	
6	1	1	1	0	498	
7	1	1	1	0	499	
8	1	1	1	0	499	
9	1	1	1	0	499	
10	1	1	1	0	498	
11	1	1	1	0	499	
12	1	1	1	0	499	
13	1	1	1	0	499	
14	1	1	1	0	499	
15	1	1	1	0	497	
0	1	1	1	0	498	
1	1	1	1	0	498	
2	1	1	1	0	498	
3	1	1	1	0	498	
4	1	1	1	0	498	
5	1	1	1	0	497	
6	1	1	1	0	497	
7	1	1	1	0	497	
8	1	1	1	0	498	
9	1	1	1	0	498	
10	1	1	1	0	498	
11	1	1	1	0	498	
12	1	1	1	0	498	
13	1	1	1	0	498	
14	1	1	1	0	498	
15	1	1	1	0	498	
0	1	1	1	0	499	
1	1	1	1	0	498	
2	1	1	1	0	497	
3	1	1	1	0	498	
4	1	1	1	0	497	
5	1	1	1	0	498	
6	1	1	1	0	498	
7	1	1	1	0	498	
8	1	1	1	0	498	
9	1	1	1	0	497	
10	1	1	1	0	497	
11	1	1	1	0	498	
12	1	1	1	0	498	
13	1	1	1	0	499	
14	1	1	1	0	499	
15	1	1	1	0	499	
0	1	1	1	0	499	
1	1	1	1	0	499	
2	1	1	1	0	499	
3	1	1	1	0	499	
4	1	1	1	0	498	
5	1	1	1	0	499	
6	1	1	1	0	499	
7	1	1	1	0	499	
8	1	1	1	0	499	
9	1	1	1	0	500	
10	1	1	1	0	499	
11	1	1	1	0	499	
12	1	1	1	0	499	
13	1	1	1	0	499	
14	1	1	1	0	500	
15	1	1	1	0	500	
0	1	1	1	0	501	
1	1	1	1	0	501	
2	1	1	1	0	502	
3	1	1	1	0	502	
4	1	1	1	0	503	
5	1	1	1	0	504	
6	1	1	1	0	504	
7	1	1	1	0	502	
8	1	1	1	0	502	
9	1	1	1	0	502	
10	1	1	1	0	502	
11	1	1	1	0	501	
12	1	1	1	0	500	
13	1	1	1	0	500	
14	1	1	1	0	499	
15	1	1	1	0	498	
0	1	1	1	0	498	
1	1	1	1	0	498	
2	1	1	1	0	497	
3	1	1	1	0	498	
4	1	1	1	0	499	
5	1	1	1	0	501	
6	1	1	1	0	505	
7	1	1	1	0	508	
8	1	1	1	0	511	
9	1	1	1	0	515	
10	1	1	1	0	519	
11	1	1	1	0	523	
12	1	1	1	0	526	
13	1	1	1	0	531	
14	1	1	1	0	538	
15	1	1	1	0	545	
0	1	1	1	0	553	
1	1	1	1	0	563	
2	1	1	1	0	573	
3	1	1	1	0	584	
4	1	1	1	0	595	
5	1	1	1	0	604	
6	1	1	1	0	613	
7	1	1	1	0	620	
8	1	1	1	0	627	
9	1	1	1	0	635	
10	1	1	1	0	641	
11	1	1	1	0	646	
12	1	1	1	0	651	
13	1	1	1	0	653	
14	1	1	1	0	653	
15	1	1	1	0	652	
0	1	1	1	0	649	
1	1	1	1	0	643	
2	1	1	1	0	634	
3	1	1	1	0	621	
4	1	1	1	0	607	
5	1	1	1	0	594	
6	1	1	1	0	581	
7	1	1	1	0	568	
8	1	1	1	0	556	
9	1	1	1	0	543	
10	1	1	1	0	530	
11	1	1	1	0	517	
12	1	1	1	0	506	
13	1	1	1	0	495	
14	1	1	1	0	484	
15	1	1	1	0	473	
0	1	1	1	0	463	
1	1	1	1	0	454	
2	1	1	1	0	445	
3	1	1	1	0	438	
4	1	1	1	0	432	
5	1	1	1	0	428	
6	1	1	1	0	427	
7	1	1	1	0	426	
8	1	1	1	0	425	
9	1	1	1	0	427	
10	1	1	1	0	430	
11	1	1	1	0	432	
12	1	1	1	0	434	
13	1	1	1	0	438	
14	1	1	1	0	441	
15	1	1	1	0	445	
0	1	1	1	0	448	
1	1	1	1	0	451	
2	1	1	1	0	455	
3	1	1	1	0	458	
4	1	1	1	0	462	
5	1	1	1	0	465	
6	1	1	1	0	469	
7	1	1	1	0	472	
8	1	1	1	0	473	
9	1	1	1	0	475	
10	1	1	1	0	478	
11	1	1	1	0	479	
12	1	1	1	0	481	
13	1	1	1	0	482	
14	1	1	1	0	484	
15	1	1	1	0	485	
0	1	1	1	0	486	
1	1	1	1	0	487	
2	1	1	1	0	487	
3	1	1	1	0	489	
4	1	1	1	0	489	
5	1	1	1	0	490	
6	1	1	1	0	492	
7	1	1	1	0	493	
8	1	1	1	0	494	
9	1	1	1	0	494	
10	1	1	1	0	495	
11	1	1	1	0	496	
12	1	1	1	0	497	
13	1	1	1	0	496	
14	1	1	1	0	496	
15	1	1	1	0	497	
0	1	1	1	0	498	
1	1	1	1	0	499	
2	1	1	1	0	499	
3	1	1	1	0	500	
4	1	1	1	0	501	
5	1	1	1	0	500	
6	1	1	1	0	500	
7	1	1	1	0	500	
8	1	1	1	0	500	
9	1	1	1	0	500	
10	1	1	1	0	501	
11	1	1	1	0	501	
12	1	1	1	0	502	
13	1	1	1	0	501	
14	1	1	1	0	500	
15	1	1	1	0	501	
0	1	1	1	0	502	
1	1	1	1	0	503	
2	1	1	1	0	503	
3	1	1	1	0	503	
4	1	1	1	0	503	
5	1	1	1	0	503	
6	1	1	1	0	504	
7	1	1	1	0	504	
8	1	1	1	0	504	
9	1	1	1	0	504	
10	1	1	1	0	504	
11	1	1	1	0	505	
12	1	1	1	0	505	
13	1	1	1	0	507	
14	1	1	1	0	507	
15	1	1	1	0	507	
0	1	1	1	0	508	
1	1	1	1	0	507	
2	1	1	1	0	506	
3	1	1	1	0	505	
4	1	1	1	0	505	
5	1	1	1	0	506	
6	1	1	1	0	506	
7	1	1	1	0	505	
8	1	1	1	0	505	
9	1	1	1	0	505	
10	1	1	1	0	505	
11	1	1	1	0	505	
12	1	1	1	0	506	
13	1	1	1	0	506	
14	1	1	1	0	505	
15	1	1	1	0	505	
0	1	1	1	0	505	
1	1	1	1	0	507	
2	1	1	1	0	507	
3	1	1	1	0	507	
4	1	1	1	0	507	
5	1	1	1	0	507	
6	1	1	1	0	508	
7	1	1	1	0	510	
8	1	1	1	0	510	
9	1	1	1	0	510	
10	1	1	1	0	511	
11	1	1	1	0	510	
12	1	1	1	0	511	
13	1	1	1	0	510	
14	1	1	1	0	511	
15	1	1	1	0	511	
0	1	1	1	0	511	
1	1	1	1	0	511	
2	1	1	1	0	511	
3	1	1	1	0	511	
4	1	1	1	0	512	
5	1	1	1	0	512	
6	1	1	1	0	512	
7	1	1	1	0	512	
8	1	1	1	0	512	
9	1	1	1	0	513	
10	1	1	1	0	513	
11	1	1	1	0	513	
12	1	1	1	0	513	
13	1	1	1	0	512	
14	1	1	1	0	512	
15	1	1	1	0	512	
0	1	1	1	0	513	
1	1	1	1	0	514	
2	1	1	1	0	514	
3	1	1	1	0	515	
4	1	1	1	0	516	
5	1	1	1	0	516	
6	1	1	1	0	516	
7	1	1	1	0	516	
8	1	1	1	0	516	
9	1	1	1	0	517	
10	1	1	1	0	517	
11	1	1	1	0	517	
12	1	1	1	0	518	
13	1	1	1	0	517	
14	1	1	1	0	518	
15	1	1	1	0	519	
0	1	1	1	0	519	
1	1	1	1	0	519	
2	1	1	1	0	519	
3	1	1	1	0	519	
4	1	1	1	0	519	
5	1	1	1	0	519	
6	1	1	1	0	519	
7	1	1	1	0	520	
8	1	1	1	0	521	
9	1	1	1	0	522	
10	1	1	1	0	522	
11	1	1	1	0	522	
12	1	1	1	0	523	
13	1	1	1	0	522	
14	1	1	1	0	522	
15	1	1	1	0	522	
0	1	1	1	0	522	
1	1	1	1	0	522	
2	1	1	1	0	523	
3	1	1	1	0	524	
4	1	1	1	0	524	
5	1	1	1	0	524	
6	1	1	1	0	524	
7	1	1	1	0	524	
8	1	1	1	0	524	
9	1	1	1	0	524	
10	1	1	1	0	524	
11	1	1	1	0	524	
12	1	1	1	0	524	
13	1	1	1	0	524	
14	1	1	1	0	524	
15	1	1	1	0	525	
0	1	1	1	0	525	
1	1	1	1	0	526	
2	1	1	1	0	527	
3	1	1	1	0	527	
4	1	1	1	0	527	
5	1	1	1	0	528	
6	1	1	1	0	527	
7	1	1	1	0	527	
8	1	1	1	0	527	
9	1	1	1	0	527	
10	1	1	1	0	527	
11	1	1	1	0	527	
12	1	1	1	0	527	
13	1	1	1	0	527	
14	1	1	1	0	527	
15	1	1	1	0	527	
0	1	1	1	0	527	
1	1	1	1	0	527	
2	1	1	1	0	527	
3	1	1	1	0	527	
4	1	1	1	0	528	
5	1	1	1	0	528	
6	1	1	1	0	528	
7	1	1	1	0	528	
8	1	1	1	0	529	
9	1	1	1	0	529	
10	1	1	1	0	529	
11	1	1	1	0	527	
12	1	1	1	0	527	
13	1	1	1	0	527	
14	1	1	1	0	527	
15	1	1	1	0	527	
0	1	1	1	0	527	
1	1	1	1	0	527	
2	1	1	1	0	526	
3	1	1	1	0	525	
4	1	1	1	0	525	
5	1	1	1	0	524	
6	1	1	1	0	523	
7	1	1	1	0	521	
8	1	1	1	0	519	
9	1	1	1	0	518	
10	1	1	1	0	518	
11	1	1	1	0	517	
12	1	1	1	0	515	
13	1	1	1	0	514	
14	1	1	1	0	512	
15	1	1	1	0	512	
0	1	1	1	0	510	
1	1	1	1	0	508	
2	1	1	1	0	506	
3	1	1	1	0	504	
4	1	1	1	0	502	
5	1	1	1	0	500	
6	1	1	1	0	499	
7	1	1	1	0	498	
8	1	1	1	0	496	
9	1	1	1	0	493	
10	1	1	1	0	492	
11	1	1	1	0	491	
12	1	1	1	0	489	
13	1	1	1	0	487	
14	1	1	1	0	486	
15	1	1	1	0	483	
0	1	1	1	0	482	
1	1	1	1	0	482	
2	1	1	1	0	481	
3	1	1	1	0	479	
4	1	1	1	0	477	
5	1	1	1	0	476	
6	1	1	1	0	475	
7	1	1	1	0	475	
8	1	1	1	0	475	
9	1	1	1	0	473	
10	1	1	1	0	472	
11	1	1	1	0	472	
12	1	1	1	0	471	
13	1	1	1	0	471	
14	1	1	1	0	470	
15	1	1	1	0	469	
0	1	1	1	0	467	
1	1	1	1	0	467	
2	1	1	1	0	467	
3	1	1	1	0	467	
4	1	1	1	0	467	
5	1	1	1	0	467	
6	1	1	1	0	467	
7	1	1	1	0	467	
8	1	1	1	0	467	
9	1	1	1	0	466	
10	1	1	1	0	465	
11	1	1	1	0	466	
12	1	1	1	0	466	
13	1	1	1	0	465	
14	1	1	1	0	465	
15	1	1	1	0	464	
0	1	1	1	0	464	
1	1	1	1	0	464	
2	1	1	1	0	463	
3	1	1	1	0	463	
4	1	1	1	0	463	
5	1	1	1	0	463	
6	1	1	1	0	463	
7	1	1	1	0	464	
8	1	1	1	0	463	
9	1	1	1	0	463	
10	1	1	1	0	464	
11	1	1	1	0	465	
12	1	1	1	0	465	
13	1	1	1	0	465	
14	1	1	1	0	465	
15	1	1	1	0	465	
0	1	1	1	0	464	
1	1	1	1	0	464	
2	1	1	1	0	465	
3	1	1	1	0	466	
4	1	1	1	0	467	
5	1	1	1	0	467	
6	1	1	1	0	467	
7	1	1	1	0	468	
8	1	1	1	0	469	
9	1	1	1	0	469	
10	1	1	1	0	470	
11	1	1	1	0	470	
12	1	1	1	0	471	
13	1	1	1	0	471	
14	1	1	1	0	472	
15	1	1	1	0	472	
0	1	1	1	0	472	
1	1	1	1	0	472	
2	1	1	1	0	472	
3	1	1	1	0	472	
4	1	1	1	0	473	
5	1	1	1	0	473	
6	1	1	1	0	473	
7	1	1	1	0	473	
8	1	1	1	0	474	
9	1	1	1	0	475	
10	1	1	1	0	474	
11	1	1	1	0	474	
12	1	1	1	0	475	
13	1	1	1	0	475	
14	1	1	1	0	476	
15	1	1	1	0	476	
0	1	1	1	0	476	
1	1	1	1	0	476	
2	1	1	1	0	476	
3	1	1	1	0	478	
4	1	1	1	0	478	
5	1	1	1	0	478	
6	1	1	1	0	478	
7	1	1	1	0	478	
8	1	1	1	0	479	
9	1	1	1	0	480	
10	1	1	1	0	480	
11	1	1	1	0	481	
12	1	1	1	0	481	
13	1	1	1	0	483	
14	1	1	1	0	483	
15	1	1	1	0	483	
0	1	1	1	0	484	
1	1	1	1	0	485	
2	1	1	1	0	486	
3	1	1	1	0	487	
4	1	1	1	0	487	
5	1	1	1	0	487	
6	1	1	1	0	487	
7	1	1	1	0	487	
8	1	1	1	0	487	
9	1	1	1	0	487	
10	1	1	1	0	487	
11	1	1	1	0	488	
12	1	1	1	0	489	
13	1	1	1	0	489	
14	1	1	1	0	489	
15	1	1	1	0	490	
0	1	1	1	0	491	
1	1	1	1	0	491	
2	1	1	1	0	491	
3	1	1	1	0	492	
4	1	1	1	0	493	
5	1	1	1	0	494	
6	1	1	1	0	496	
7	1	1	1	0	496	
8	1	1	1	0	497	
9	1	1	1	0	497	
10	1	1	1	0	497	
11	1	1	1	0	497	
12	1	1	1	0	497	
13	1	1	1	0	498	
14	1	1	1	0	498	
15	1	1	1	0	497	
0	1	1	1	0	499	
1	1	1	1	0	499	
2	1	1	1	0	500	
3	1	1	1	0	501	
4	1	1	1	0	501	
5	1	1	1	0	502	
6	1	1	1	0	502	
7	1	1	1	0	502	
8	1	1	1	0	502	
9	1	1	1	0	502	
10	1	1	1	0	503	
11	1	1	1	0	503	
12	1	1	1	0	503	
13	1	1	1	0	505	
14	1	1	1	0	505	
15	1	1	1	0	506	
0	1	1	1	0	506	
1	1	1	1	0	507	
2	1	1	1	0	508	
3	1	1	1	0	508	
4	1	1	1	0	508	
5	1	1	1	0	508	
6	1	1	1	0	508	
7	1	1	1	0	509	
8	1	1	1	0	509	
9	1	1	1	0	510	
10	1	1	1	0	510	
11	1	1	1	0	510	
12	1	1	1	0	510	
13	1	1	1	0	511	
14	1	1	1	0	511	
15	1	1	1	0	511	
0	1	1	1	0	511	
1	1	1	1	0	511	
2	1	1	1	0	511	
3	1	1	1	0	512	
4	1	1	1	0	512	
5	1	1	1	0	512	
6	1	1	1	0	512	
7	1	1	1	0	512	
8	1	1	1	0	513	
9	1	1	1	0	513	
10	1	1	1	0	513	
11	1	1	1	0	513	
12	1	1	1	0	513	
13	1	1	1	0	513	
14	1	1	1	0	512	
15	1	1	1	0	513	
0	1	1	1	0	514	
1	1	1	1	0	514	
2	1	1	1	0	514	
3	1	1	1	0	514	
4	1	1	1	0	513	
5	1	1	1	0	513	
6	1	1	1	0	512	
7	1	1	1	0	513	
8	1	1	1	0	512	
9	1	1	1	0	512	
10	1	1	1	0	511	
11	1	1	1	0	511	
12	1	1	1	0	511	
13	1	1	1	0	511	
14	1	1	1	0	512	
15	1	1	1	0	513	
0	1	1	1	0	512	
1	1	1	1	0	512	
2	1	1	1	0	512	
3	1	1	1	0	512	
4	1	1	1	0	512	
5	1	1	1	0	513	
6	1	1	1	0	513	
7	1	1	1	0	512	
8	1	1	1	0	513	
9	1	1	1	0	513	
10	1	1	1	0	512	
11	1	1	1	0	512	
12	1	1	1	0	512	
13	1	1	1	0	511	
14	1	1	1	0	512	
15	1	1	1	0	512	
0	1	1	1	0	512	
1	1	1	1	0	512	
2	1	1	1	0	512	
3	1	1	1	0	512	
4	1	1	1	0	512	
5	1	1	1	0	512	
6	1	1	1	0	512	
7	1	1	1	0	512	
8	1	1	1	0	511	
9	1	1	1	0	512	
10	1	1	1	0	512	
11	1	1	1	0	512	
12	1	1	1	0	512	
13	1	1	1	0	511	
14	1	1	1	0	512	
15	1	1	1	0	512	
0	1	1	1	0	512	
1	1	1	1	0	512	
2	1	1	1	0	512	
3	1	1	1	0	512	
4	1	1	1	0	513	
5	1	1	1	0	513	
6	1	1	1	0	513	
7	1	1	1	0	512	
8	1	1	1	0	512	
9	1	1	1	0	512	
10	1	1	1	0	512	
11	1	1	1	0	512	
12	1	1	1	0	512	
13	1	1	1	0	511	
14	1	1	1	0	512	
15	1	1	1	0	512	
0	1	1	1	0	512	
1	1	1	1	0	512	
2	1	1	1	0	512	
3	1	1	1	0	512	
4	1	1	1	0	512	
5	1	1	1	0	512	
6	1	1	1	0	512	
7	1	1	1	0	512	
8	1	1	1	0	511	
9	1	1	1	0	512	
10	1	1	1	0	512	
11	1	1	1	0	512	
12	1	1	1	0	512	
13	1	1	1	0	511	
14	1	1	1	0	512	
15	1	1	1	0	512	
0	1	1	1	0	512	
1	1	1	1	0	512	
2	1	1	1	0	512	
3	1	1	1	0	512	
4	1	1	1	0	512	
5	1	1	1	0	512	
6	1	1	1	0	512	
7	1	1	1	0	512	
8	1	1	1	0	512	
9	1	1	1	0	511	
10	1	1	1	0	510	
11	1	1	1	0	511	
12	1	1	1	0	511	
13	1	1	1	0	510	
14	1	1	1	0	510	
15	1	1	1	0	510	
0	1	1	1	0	510	
1	1	1	1	0	510	
2	1	1	1	0	510	
3	1	1	1	0	511	
4	1	1	1	0	510	
5	1	1	1	0	511	
6	1	1	1	0	511	
7	1	1	1	0	510	
8	1	1	1	0	510	
9	1	1	1	0	509	
10	1	1	1	0	510	
11	1	1	1	0	510	
12	1	1	1	0	510	
13	1	1	1	0	510	
14	1	1	1	0	510	
15	1	1	1	0	509	
0	1	1	1	0	510	
1	1	1	1	0	510	
2	1	1	1	0	509	
3	1	1	1	0	508	
4	1	1	1	0	509	
5	1	1	1	0	509	
6	1	1	1	0	509	
7	1	1	1	0	508	
8	1	1	1	0	509	
9	1	1	1	0	509	
10	1	1	1	0	510	
11	1	1	1	0	510	
12	1	1	1	0	511	
13	1	1	1	0	512	
14	1	1	1	0	512	
15	1	1	1	0	512	
0	1	1	1	0	512	
1	1	1	1	0	513	
2	1	1	1	0	513	
3	1	1	1	0	513	
4	1	1	1	0	513	
5	1	1	1	0	513	
6	1	1	1	0	513	
7	1	1	1	0	512	
8	1	1	1	0	512	
9	1	1	1	0	511	
10	1	1	1	0	511	
11	1	1	1	0	511	
12	1	1	1	0	511	
13	1	1	1	0	512	
14	1	1	1	0	513	
15	1	1	1	0	513	
0	1	1	1	0	513	
1	1	1	1	0	513	
2	1	1	1	0	514	
3	1	1	1	0	514	
4	1	1	1	0	514	
5	1	1	1	0	514	
6	1	1	1	0	514	
7	1	1	1	0	514	
8	1	1	1	0	515	
9	1	1	1	0	516	
10	1	1	1	0	516	
11	1	1	1	0	516	
12	1	1	1	0	517	
13	1	1	1	0	517	
14	1	1	1	0	517	
15	1	1	1	0	517	
0	1	1	1	0	518	
1	1	1	1	0	517	
2	1	1	1	0	518	
3	1	1	1	0	518	
4	1	1	1	0	519	
5	1	1	1	0	519	
6	1	1	1	0	520	
7	1	1	1	0	521	
8	1	1	1	0	521	
9	1	1	1	0	522	
10	1	1	1	0	522	
11	1	1	1	0	522	
12	1	1	1	0	522	
13	1	1	1	0	523	
14	1	1	1	0	522	
15	1	1	1	0	521	
0	1	1	1	0	520	
1	1	1	1	0	519	
2	1	1	1	0	518	
3	1	1	1	0	516	
4	1	1	1	0	516	
5	1	1	1	0	516	
6	1	1	1	0	515	
7	1	1	1	0	515	
8	1	1	1	0	514	
9	1	1	1	0	514	
10	1	1	1	0	514	
11	1	1	1	0	513	
12	1	1	1	0	513	
13	1	1	1	0	513	
14	1	1	1	0	513	
15	1	1	1	0	513	
0	1	1	1	0	512	
1	1	1	1	0	512	
2	1	1	1	0	511	
3	1	1	1	0	510	
4	1	1	1	0	510	
5	1	1	1	0	509	
6	1	1	1	0	508	
7	1	1	1	0	508	
8	1	1	1	0	507	
9	1	1	1	0	507	
10	1	1	1	0	507	
11	1	1	1	0	506	
12	1	1	1	0	505	
13	1	1	1	0	504	
14	1	1	1	0	504	
15	1	1	1	0	503	
0	1	1	1	0	501	
1	1	1	1	0	500	
2	1	1	1	0	500	
3	1	1	1	0	499	
4	1	1	1	0	499	
5	1	1	1	0	498	
6	1	1	1	0	498	
7	1	1	1	0	498	
8	1	1	1	0	498	
9	1	1	1	0	498	
10	1	1	1	0	498	
11	1	1	1	0	497	
12	1	1	1	0	496	
13	1	1	1	0	497	
14	1	1	1	0	497	
15	1	1	1	0	498	
0	1	1	1	0	499	
1	1	1	1	0	500	
2	1	1	1	0	500	
3	1	1	1	0	500	
4	1	1	1	0	500	
5	1	1	1	0	500	
6	1	1	1	0	501	
7	1	1	1	0	500	
8	1	1	1	0	501	
9	1	1	1	0	501	
10	1	1	1	0	501	
11	1	1	1	0	501	
12	1	1	1	0	501	
13	1	1	1	0	500	
14	1	1	1	0	500	
15	1	1	1	0	500	
0	1	1	1	0	500	
1	1	1	1	0	500	
2	1	1	1	0	501	
3	1	1	1	0	501	
4	1	1	1	0	501	
5	1	1	1	0	501	
6	1	1	1	0	500	
7	1	1	1	0	500	
8	1	1	1	0	500	
9	1	1	1	0	500	
10	1	1	1	0	500	
11	1	1	1	0	499	
12	1	1	1	0	500	
13	1	1	1	0	500	
14	1	1	1	0	499	
15	1	1	1	0	499	
0	1	1	1	0	499	
1	1	1	1	0	500	
2	1	1	1	0	500	
3	1	1	1	0	500	
4	1	1	1	0	499	
5	1	1	1	0	500	
6	1	1	1	0	500	
7	1	1	1	0	499	
8	1	1	1	0	500	
9	1	1	1	0	500	
10	1	1	1	0	500	
11	1	1	1	0	500	
12	1	1	1	0	500	
13	1	1	1	0	500	
14	1	1	1	0	501	
15	1	1	1	0	500	
0	1	1	1	0	501	
1	1	1	1	0	501	
2	1	1	1	0	502	
3	1	1	1	0	502	
4	1	1	1	0	502	
5	1	1	1	0	502	
6	1	1	1	0	502	
7	1	1	1	0	501	
8	1	1	1	0	501	
9	1	1	1	0	501	
10	1	1	1	0	502	
11	1	1	1	0	501	
12	1	1	1	0	501	
13	1	1	1	0	500	
14	1	1	1	0	499	
15	1	1	1	0	497	
0	1	1	1	0	497	
1	1	1	1	0	496	
2	1	1	1	0	495	
3	1	1	1	0	496	
4	1	1	1	0	496	
5	1	1	1	0	496	
6	1	1	1	0	497	
7	1	1	1	0	500	
8	1	1	1	0	504	
9	1	1	1	0	507	
10	1	1	1	0	510	
11	1	1	1	0	514	
12	1	1	1	0	519	
13	1	1	1	0	523	
14	1	1	1	0	528	
15	1	1	1	0	535	
0	1	1	1	0	542	
1	1	1	1	0	550	
2	1	1	1	0	560	
3	1	1	1	0	570	
4	1	1	1	0	580	
5	1	1	1	0	590	
6	1	1	1	0	599	
7	1	1	1	0	607	
8	1	1	1	0	615	
9	1	1	1	0	623	
10	1	1	1	0	630	
11	1	1	1	0	635	
12	1	1	1	0	639	
13	1	1	1	0	641	
14	1	1	1	0	642	
15	1	1	1	0	641	
0	1	1	1	0	641	
1	1	1	1	0	637	
2	1	1	1	0	630	
3	1	1	1	0	621	
4	1	1	1	0	609	
5	1	1	1	0	596	
6	1	1	1	0	583	
7	1	1	1	0	572	
8	1	1	1	0	560	
9	1	1	1	0	548	
10	1	1	1	0	536	
11	1	1	1	0	524	
12	1	1	1	0	511	
13	1	1	1	0	499	
14	1	1	1	0	487	
15	1	1	1	0	476	
0	1	1	1	0	465	
1	1	1	1	0	454	
2	1	1	1	0	444	
3	1	1	1	0	438	
4	1	1	1	0	432	
5	1	1	1	0	428	
6	1	1	1	0	426	
7	1	1	1	0	426	
8	1	1	1	0	427	
9	1	1	1	0	428	
10	1	1	1	0	432	
11	1	1	1	0	434	
12	1	1	1	0	436	
13	1	1	1	0	440	
14	1	1	1	0	443	
15	1	1	1	0	446	
0	1	1	1	0	449	
1	1	1	1	0	454	
2	1	1	1	0	458	
3	1	1	1	0	462	
4	1	1	1	0	465	
5	1	1	1	0	468	
6	1	1	1	0	471	
7	1	1	1	0	473	
8	1	1	1	0	476	
9	1	1	1	0	478	
10	1	1	1	0	480	
11	1	1	1	0	481	
12	1	1	1	0	482	
13	1	1	1	0	483	
14	1	1	1	0	485	
15	1	1	1	0	486	
0	1	1	1	0	486	
1	1	1	1	0	486	
2	1	1	1	0	487	
3	1	1	1	0	488	
4	1	1	1	0	488	
5	1	1	1	0	488	
6	1	1	1	0	489	
7	1	1	1	0	489	
8	1	1	1	0	490	
9	1	1	1	0	491	
10	1	1	1	0	491	
11	1	1	1	0	492	
12	1	1	1	0	493	
13	1	1	1	0	494	
14	1	1	1	0	495	
15	1	1	1	0	496	
0	1	1	1	0	496	
1	1	1	1	0	497	
2	1	1	1	0	498	
3	1	1	1	0	499	
4	1	1	1	0	498	
5	1	1	1	0	498	
6	1	1	1	0	499	
7	1	1	1	0	499	
8	1	1	1	0	499	
9	1	1	1	0	500	
10	1	1	1	0	501	
11	1	1	1	0	501	
12	1	1	1	0	500	
13	1	1	1	0	500	
14	1	1	1	0	500	
15	1	1	1	0	501	
0	1	1	1	0	501	
1	1	1	1	0	501	
2	1	1	1	0	502	
3	1	1	1	0	502	
4	1	1	1	0	502	
5	1	1	1	0	502	
6	1	1	1	0	503	
7	1	1	1	0	504	
8	1	1	1	0	504	
9	1	1	1	0	504	
10	1	1	1	0	504	
11	1	1	1	0	503	
12	1	1	1	0	504	
13	1	1	1	0	504	
14	1	1	1	0	504	
15	1	1	1	0	504	
0	1	1	1	0	504	
1	1	1	1	0	505	
2	1	1	1	0	505	
3	1	1	1	0	505	
4	1	1	1	0	504	
5	1	1	1	0	505	
6	1	1	1	0	504	
7	1	1	1	0	504	
8	1	1	1	0	504	
9	1	1	1	0	504	
10	1	1	1	0	504	
11	1	1	1	0	505	
12	1	1	1	0	504	
13	1	1	1	0	504	
14	1	1	1	0	504	
15	1	1	1	0	504	
0	1	1	1	0	504	
1	1	1	1	0	505	
2	1	1	1	0	505	
3	1	1	1	0	505	
4	1	1	1	0	506	
5	1	1	1	0	506	
6	1	1	1	0	505	
7	1	1	1	0	506	
8	1	1	1	0	505	
9	1	1	1	0	506	
10	1	1	1	0	507	
11	1	1	1	0	508	
12	1	1	1	0	508	
13	1	1	1	0	509	
14	1	1	1	0	509	
15	1	1	1	0	510	
0	1	1	1	0	510	
1	1	1	1	0	511	
2	1	1	1	0	511	
3	1	1	1	0	511	
4	1	1	1	0	512	
5	1	1	1	0	512	
6	1	1	1	0	512	
7	1	1	1	0	513	
8	1	1	1	0	513	
9	1	1	1	0	514	
10	1	1	1	0	514	
11	1	1	1	0	515	
12	1	1	1	0	515	
13	1	1	1	0	515	
14	1	1	1	0	515	
15	1	1	1	0	515	
0	1	1	1	0	515	
1	1	1	1	0	515	
2	1	1	1	0	515	
3	1	1	1	0	516	
4	1	1	1	0	516	
5	1	1	1	0	516	
6	1	1	1	0	516	
7	1	1	1	0	515	
8	1	1	1	0	516	
9	1	1	1	0	516	
10	1	1	1	0	515	
11	1	1	1	0	515	
12	1	1	1	0	515	
13	1	1	1	0	515	
14	1	1	1	0	515	
15	1	1	1	0	516	
0	1	1	1	0	516	
1	1	1	1	0	516	
2	1	1	1	0	517	
3	1	1	1	0	517	
4	1	1	1	0	518	
5	1	1	1	0	517	
6	1	1	1	0	517	
7	1	1	1	0	518	
8	1	1	1	0	518	
9	1	1	1	0	518	
10	1	1	1	0	518	
11	1	1	1	0	519	
12	1	1	1	0	519	
13	1	1	1	0	520	
14	1	1	1	0	520	
15	1	1	1	0	521	
0	1	1	1	0	522	
1	1	1	1	0	523	
2	1	1	1	0	523	
3	1	1	1	0	522	
4	1	1	1	0	522	
5	1	1	1	0	522	
6	1	1	1	0	522	
7	1	1	1	0	522	
8	1	1	1	0	522	
9	1	1	1	0	522	
10	1	1	1	0	523	
11	1	1	1	0	523	
12	1	1	1	0	524	
13	1	1	1	0	524	
14	1	1	1	0	524	
15	1	1	1	0	526	
0	1	1	1	0	526	
1	1	1	1	0	527	
2	1	1	1	0	527	
3	1	1	1	0	527	
4	1	1	1	0	528	
5	1	1	1	0	528	
6	1	1	1	0	527	
7	1	1	1	0	527	
8	1	1	1	0	527	
9	1	1	1	0	527	
10	1	1	1	0	527	
11	1	1	1	0	528	
12	1	1	1	0	528	
13	1	1	1	0	528	
14	1	1	1	0	529	
15	1	1	1	0	529	
0	1	1	1	0	529	
1	1	1	1	0	529	
2	1	1	1	0	529	
3	1	1	1	0	529	
4	1	1	1	0	530	
5	1	1	1	0	530	
6	1	1	1	0	531	
7	1	1	1	0	530	
8	1	1	1	0	530	
9	1	1	1	0	529	
10	1	1	1	0	529	
11	1	1	1	0	529	
12	1	1	1	0	528	
13	1	1	1	0	528	
14	1	1	1	0	529	
15	1	1	1	0	528	
0	1	1	1	0	527	
1	1	1	1	0	526	
2	1	1	1	0	526	
3	1	1	1	0	526	
4	1	1	1	0	525	
5	1	1	1	0	525	
6	1	1	1	0	524	
7	1	1	1	0	523	
8	1	1	1	0	522	
9	1	1	1	0	521	
10	1	1	1	0	520	
11	1	1	1	0	519	
12	1	1	1	0	518	
13	1	1	1	0	517	
14	1	1	1	0	516	
15	1	1	1	0	515	
0	1	1	1	0	513	
1	1	1	1	0	512	
2	1	1	1	0	511	
3	1	1	1	0	509	
4	1	1	1	0	507	
5	1	1	1	0	506	
6	1	1	1	0	505	
7	1	1	1	0	504	
8	1	1	1	0	502	
9	1	1	1	0	500	
10	1	1	1	0	499	
11	1	1	1	0	497	
12	1	1	1	0	496	
13	1	1	1	0	495	
14	1	1	1	0	492	
15	1	1	1	0	491	
0	1	1	1	0	489	
1	1	1	1	0	488	
2	1	1	1	0	487	
3	1	1	1	0	485	
4	1	1	1	0	483	
5	1	1	1	0	483	
6	1	1	1	0	482	
7	1	1	1	0	481	
8	1	1	1	0	481	
9	1	1	1	0	480	
10	1	1	1	0	479	
11	1	1	1	0	479	
12	1	1	1	0	478	
13	1	1	1	0	478	
14	1	1	1	0	478	
15	1	1	1	0	478	
0	1	1	1	0	478	
1	1	1	1	0	478	
2	1	1	1	0	477	
3	1	1	1	0	477	
4	1	1	1	0	476	
5	1	1	1	0	476	
6	1	1	1	0	476	
7	1	1	1	0	476	
8	1	1	1	0	475	
9	1	1	1	0	475	
10	1	1	1	0	475	
11	1	1	1	0	475	
12	1	1	1	0	476	
13	1	1	1	0	476	
14	1	1	1	0	476	
15	1	1	1	0	476	
0	1	1	1	0	476	
1	1	1	1	0	475	
2	1	1	1	0	475	
3	1	1	1	0	475	
4	1	1	1	0	476	
5	1	1	1	0	476	
6	1	1	1	0	476	
7	1	1	1	0	476	
8	1	1	1	0	475	
9	1	1	1	0	475	
10	1	1	1	0	475	
11	1	1	1	0	475	
12	1	1	1	0	474	
13	1	1	1	0	475	
14	1	1	1	0	475	
15	1	1	1	0	476	
0	1	1	1	0	476	
1	1	1	1	0	477	
2	1	1	1	0	477	
3	1	1	1	0	477	
4	1	1	1	0	478	
5	1	1	1	0	478	
6	1	1	1	0	479	
7	1	1	1	0	479	
8	1	1	1	0	479	
9	1	1	1	0	480	
10	1	1	1	0	480	
11	1	1	1	0	480	
12	1	1	1	0	481	
13	1	1	1	0	481	
14	1	1	1	0	481	
15	1	1	1	0	481	
0	1	1	1	0	481	
1	1	1	1	0	481	
2	1	1	1	0	481	
3	1	1	1	0	482	
4	1	1	1	0	482	
5	1	1	1	0	482	
6	1	1	1	0	482	
7	1	1	1	0	483	
8	1	1	1	0	483	
9	1	1	1	0	483	
10	1	1	1	0	483	
11	1	1	1	0	483	
12	1	1	1	0	483	
13	1	1	1	0	484	
14	1	1	1	0	484	
15	1	1	1	0	484	
0	1	1	1	0	484	
1	1	1	1	0	484	
2	1	1	1	0	485	
3	1	1	1	0	485	
4	1	1	1	0	486	
5	1	1	1	0	486	
6	1	1	1	0	486	
7	1	1	1	0	487	
8	1	1	1	0	487	
9	1	1	1	0	487	
10	1	1	1	0	488	
11	1	1	1	0	488	
12	1	1	1	0	489	
13	1	1	1	0	489	
14	1	1	1	0	489	
15	1	1	1	0	489	
0	1	1	1	0	489	
1	1	1	1	0	490	
2	1	1	1	0	490	
3	1	1	1	0	490	
4	1	1	1	0	490	
5	1	1	1	0	490	
6	1	1	1	0	490	
7	1	1	1	0	491	
8	1	1	1	0	491	
9	1	1	1	0	492	
10	1	1	1	0	492	
11	1	1	1	0	493	
12	1	1	1	0	493	
13	1	1	1	0	493	
14	1	1	1	0	494	
15	1	1	1	0	494	
0	1	1	1	0	494	
1	1	1	1	0	494	
2	1	1	1	0	495	
3	1	1	1	0	496	
4	1	1	1	0	496	
5	1	1	1	0	497	
6	1	1	1	0	498	
7	1	1	1	0	498	
8	1	1	1	0	498	
9	1	1	1	0	499	
10	1	1	1	0	500	
11	1	1	1	0	500	
12	1	1	1	0	501	
13	1	1	1	0	501	
14	1	1	1	0	501	
15	1	1	1	0	501	
0	1	1	1	0	502	
1	1	1	1	0	502	
2	1	1	1	0	502	
3	1	1	1	0	503	
4	1	1	1	0	502	
5	1	1	1	0	502	
6	1	1	1	0	502	
7	1	1	1	0	503	
8	1	1	1	0	503	
9	1	1	1	0	503	
10	1	1	1	0	504	
11	1	1	1	0	504	
12	1	1	1	0	505	
13	1	1	1	0	505	
14	1	1	1	0	505	
15	1	1	1	0	505	
0	1	1	1	0	505	
1	1	1	1	0	505	
2	1	1	1	0	505	
3	1	1	1	0	506	
4	1	1	1	0	505	
5	1	1	1	0	506	
6	1	1	1	0	506	
7	1	1	1	0	506	
8	1	1	1	0	506	
9	1	1	1	0	505	
10	1	1	1	0	505	
11	1	1	1	0	505	
12	1	1	1	0	506	
13	1	1	1	0	507	
14	1	1	1	0	507	
15	1	1	1	0	508	
0	1	1	1	0	508	
1	1	1	1	0	510	
2	1	1	1	0	510	
3	1	1	1	0	510	
4	1	1	1	0	510	
5	1	1	1	0	511	
6	1	1	1	0	511	
7	1	1	1	0	511	
8	1	1	1	0	510	
9	1	1	1	0	510	
10	1	1	1	0	510	
11	1	1	1	0	510	
12	1	1	1	0	509	
13	1	1	1	0	509	
14	1	1	1	0	510	
15	1	1	1	0	510	
0	1	1	1	0	510	
1	1	1	1	0	509	
2	1	1	1	0	509	
3	1	1	1	0	508	
4	1	1	1	0	509	
5	1	1	1	0	509	
6	1	1	1	0	508	
7	1	1	1	0	509	
8	1	1	1	0	509	
9	1	1	1	0	510	
10	1	1	1	0	511	
11	1	1	1	0	510	
12	1	1	1	0	510	
13	1	1	1	0	510	
14	1	1	1	0	511	
15	1	1	1	0	511	
0	1	1	1	0	511	
1	1	1	1	0	511	
2	1	1	1	0	511	
3	1	1	1	0	511	
4	1	1	1	0	511	
5	1	1	1	0	511	
6	1	1	1	0	511	
7	1	1	1	0	511	
8	1	1	1	0	510	
9	1	1	1	0	510	
10	1	1	1	0	509	
11	1	1	1	0	508	
12	1	1	1	0	508	
13	1	1	1	0	508	
14	1	1	1	0	508	
15	1	1	1	0	508	
0	1	1	1	0	508	
1	1	1	1	0	508	
2	1	1	1	0	508	
3	1	1	1	0	508	
4	1	1	1	0	508	
5	1	1	1	0	508	
6	1	1	1	0	508	
7	1	1	1	0	508	
8	1	1	1	0	508	
9	1	1	1	0	508	
10	1	1	1	0	508	
11	1	1	1	0	508	
12	1	1	1	0	508	
13	1	1	1	0	508	
14	1	1	1	0	507	
15	1	1	1	0	507	
0	1	1	1	0	508	
1	1	1	1	0	508	
2	1	1	1	0	508	
3	1	1	1	0	508	
4	1	1	1	0	507	
5	1	1	1	0	507	
6	1	1	1	0	507	
7	1	1	1	0	507	
8	1	1	1	0	507	
9	1	1	1	0	506	
10	1	1	1	0	505	
11	1	1	1	0	505	
12	1	1	1	0	505	
13	1	1	1	0	505	
14	1	1	1	0	506	
15	1	1	1	0	507	
0	1	1	1	0	507	
1	1	1	1	0	507	
2	1	1	1	0	507	
3	1	1	1	0	507	
4	1	1	1	0	507	
5	1	1	1	0	507	
6	1	1	1	0	508	
7	1	1	1	0	508	
8	1	1	1	0	508	
9	1	1	1	0	508	
10	1	1	1	0	508	
11	1	1	1	0	508	
12	1	1	1	0	508	
13	1	1	1	0	508	
14	1	1	1	0	509	
15	1	1	1	0	509	
0	1	1	1	0	509	
1	1	1	1	0	509	
2	1	1	1	0	509	
3	1	1	1	0	508	
4	1	1	1	0	509	
5	1	1	1	0	508	
6	1	1	1	0	508	
7	1	1	1	0	508	
8	1	1	1	0	508	
9	1	1	1	0	508	
10	1	1	1	0	508	
11	1	1	1	0	508	
12	1	1	1	0	508	
13	1	1	1	0	509	
14	1	1	1	0	509	
15	1	1	1	0	509	
0	1	1	1	0	510	
1	1	1	1	0	510	
2	1	1	1	0	510	
3	1	1	1	0	510	
4	1	1	1	0	510	
5	1	1	1	0	510	
6	1	1	1	0	510	
7	1	1	1	0	510	
8	1	1	1	0	511	
9	1	1	1	0	511	
10	1	1	1	0	511	
11	1	1	1	0	511	
12	1	1	1	0	511	
13	1	1	1	0	512	
14	1	1	1	0	512	
15	1	1	1	0	512	
0	1	1	1	0	512	
1	1	1	1	0	512	
2	1	1	1	0	512	
3	1	1	1	0	512	
4	1	1	1	0	512	
5	1	1	1	0	512	
6	1	1	1	0	512	
7	1	1	1	0	511	
8	1	1	1	0	512	
9	1	1	1	0	512	
10	1	1	1	0	513	
11	1	1	1	0	513	
12	1	1	1	0	513	
13	1	1	1	0	513	
14	1	1	1	0	512	
15	1	1	1	0	513	
0	1	1	1	0	513	
1	1	1	1	0	513	
2	1	1	1	0	513	
3	1	1	1	0	513	
4	1	1	1	0	513	
5	1	1	1	0	513	
6	1	1	1	0	514	
7	1	1	1	0	514	
8	1	1	1	0	514	
9	1	1	1	0	513	
10	1	1	1	0	514	
11	1	1	1	0	514	
12	1	1	1	0	514	
13	1	1	1	0	515	
14	1	1	1	0	515	
15	1	1	1	0	516	
0	1	1	1	0	516	
1	1	1	1	0	516	
2	1	1	1	0	516	
3	1	1	1	0	517	
4	1	1	1	0	518	
5	1	1	1	0	518	
6	1	1	1	0	519	
7	1	1	1	0	519	
8	1	1	1	0	520	
9	1	1	1	0	521	
10	1	1	1	0	521	
11	1	1	1	0	521	
12	1	1	1	0	520	
13	1	1	1	0	520	
14	1	1	1	0	521	
15	1	1	1	0	521	
0	1	1	1	0	522	
1	1	1	1	0	522	
2	1	1	1	0	522	
3	1	1	1	0	521	
4	1	1	1	0	521	
5	1	1	1	0	520	
6	1	1	1	0	520	
7	1	1	1	0	520	
8	1	1	1	0	520	
9	1	1	1	0	521	
10	1	1	1	0	521	
11	1	1	1	0	523	
12	1	1	1	0	523	
13	1	1	1	0	523	
14	1	1	1	0	524	
15	1	1	1	0	524	
0	1	1	1	0	524	
1	1	1	1	0	525	
2	1	1	1	0	525	
3	1	1	1	0	526	
4	1	1	1	0	527	
5	1	1	1	0	529	
6	1	1	1	0	530	
7	1	1	1	0	531	
8	1	1	1	0	531	
9	1	1	1	0	532	
10	1	1	1	0	531	
11	1	1	1	0	531	
12	1	1	1	0	529	
13	1	1	1	0	529	
14	1	1	1	0	528	
15	1	1	1	0	528	
0	1	1	1	0	528	
1	1	1	1	0	526	
2	1	1	1	0	525	
3	1	1	1	0	525	
4	1	1	1	0	524	
5	1	1	1	0	524	
6	1	1	1	0	523	
7	1	1	1	0	522	
8	1	1	1	0	522	
9	1	1	1	0	522	
10	1	1	1	0	522	
11	1	1	1	0	522	
12	1	1	1	0	521	
13	1	1	1	0	521	
14	1	1	1	0	520	
15	1	1	1	0	519	
0	1	1	1	0	518	
1	1	1	1	0	517	
2	1	1	1	0	516	
3	1	1	1	0	516	
4	1	1	1	0	516	
5	1	1	1	0	515	
6	1	1	1	0	514	
7	1	1	1	0	513	
8	1	1	1	0	512	
9	1	1	1	0	511	
10	1	1	1	0	510	
11	1	1	1	0	508	
12	1	1	1	0	507	
13	1	1	1	0	507	
14	1	1	1	0	506	
15	1	1	1	0	504	
0	1	1	1	0	504	
1	1	1	1	0	504	
2	1	1	1	0	503	
3	1	1	1	0	503	
4	1	1	1	0	502	
5	1	1	1	0	502	
6	1	1	1	0	503	
7	1	1	1	0	502	
8	1	1	1	0	502	
9	1	1	1	0	501	
10	1	1	1	0	501	
11	1	1	1	0	500	
12	1	1	1	0	499	
13	1	1	1	0	500	
14	1	1	1	0	499	
15	1	1	1	0	499	
0	1	1	1	0	500	
1	1	1	1	0	499	
2	1	1	1	0	499	
3	1	1	1	0	499	
4	1	1	1	0	499	
5	1	1	1	0	499	
6	1	1	1	0	499	
7	1	1	1	0	500	
8	1	1	1	0	500	
9	1	1	1	0	500	
10	1	1	1	0	500	
11	1	1	1	0	500	
12	1	1	1	0	500	
13	1	1	1	0	500	
14	1	1	1	0	501	
15	1	1	1	0	502	
0	1	1	1	0	502	
1	1	1	1	0	502	
2	1	1	1	0	501	
3	1	1	1	0	501	
4	1	1	1	0	502	
5	1	1	1	0	502	
6	1	1	1	0	502	
7	1	1	1	0	503	
8	1	1	1	0	503	
9	1	1	1	0	503	
10	1	1	1	0	502	
11	1	1	1	0	501	
12	1	1	1	0	501	
13	1	1	1	0	501	
14	1	1	1	0	502	
15	1	1	1	0	503	
0	1	1	1	0	504	
1	1	1	1	0	504	
2	1	1	1	0	505	
3	1	1	1	0	505	
4	1	1	1	0	505	
5	1	1	1	0	505	
6	1	1	1	0	506	
7	1	1	1	0	506	
8	1	1	1	0	507	
9	1	1	1	0	507	
10	1	1	1	0	507	
11	1	1	1	0	507	
12	1	1	1	0	507	
13	1	1	1	0	507	
14	1	1	1	0	507	
15	1	1	1	0	507	
0	1	1	1	0	506	
1	1	1	1	0	507	
2	1	1	1	0	507	
3	1	1	1	0	507	
4	1	1	1	0	507	
5	1	1	1	0	506	
6	1	1	1	0	507	
7	1	1	1	0	507	
8	1	1	1	0	507	
9	1	1	1	0	507	
10	1	1	1	0	508	
11	1	1	1	0	508	
12	1	1	1	0	508	
13	1	1	1	0	508	
14	1	1	1	0	507	
15	1	1	1	0	507	
0	1	1	1	0	508	
1	1	1	1	0	507	
2	1	1	1	0	507	
3	1	1	1	0	505	
4	1	1	1	0	505	
5	1	1	1	0	505	
6	1	1	1	0	507	
7	1	1	1	0	509	
8	1	1	1	0	512	
9	1	1	1	0	515	
10	1	1	1	0	519	
11	1	1	1	0	523	
12	1	1	1	0	526	
13	1	1	1	0	530	
14	1	1	1	0	535	
15	1	1	1	0	541	
0	1	1	1	0	548	
1	1	1	1	0	556	
2	1	1	1	0	565	
3	1	1	1	0	576	
4	1	1	1	0	586	
5	1	1	1	0	598	
6	1	1	1	0	608	
7	1	1	1	0	617	
8	1	1	1	0	626	
9	1	1	1	0	635	
10	1	1	1	0	643	
11	1	1	1	0	650	
12	1	1	1	0	658	
13	1	1	1	0	663	
14	1	1	1	0	666	
15	1	1	1	0	667	
0	1	1	1	0	667	
1	1	1	1	0	665	
2	1	1	1	0	660	
3	1	1	1	0	653	
4	1	1	1	0	643	
5	1	1	1	0	631	
6	1	1	1	0	617	
7	1	1	1	0	604	
8	1	1	1	0	592	
9	1	1	1	0	580	
10	1	1	1	0	568	
11	1	1	1	0	554	
12	1	1	1	0	540	
13	1	1	1	0	527	
14	1	1	1	0	514	
15	1	1	1	0	502	
0	1	1	1	0	489	
1	1	1	1	0	477	
2	1	1	1	0	465	
3	1	1	1	0	455	
4	1	1	1	0	447	
5	1	1	1	0	441	
6	1	1	1	0	438	
7	1	1	1	0	436	
8	1	1	1	0	436	
9	1	1	1	0	437	
10	1	1	1	0	438	
11	1	1	1	0	440	
12	1	1	1	0	443	
13	1	1	1	0	446	
14	1	1	1	0	449	
15	1	1	1	0	453	
0	1	1	1	0	455	
1	1	1	1	0	459	
2	1	1	1	0	463	
3	1	1	1	0	467	
4	1	1	1	0	472	
5	1	1	1	0	476	
6	1	1	1	0	479	
7	1	1	1	0	482	
8	1	1	1	0	484	
9	1	1	1	0	486	
10	1	1	1	0	488	
11	1	1	1	0	489	
12	1	1	1	0	491	
13	1	1	1	0	491	
14	1	1	1	0	492	
15	1	1	1	0	492	
0	1	1	1	0	492	
1	1	1	1	0	493	
2	1	1	1	0	493	
3	1	1	1	0	494	
4	1	1	1	0	494	
5	1	1	1	0	495	
6	1	1	1	0	496	
7	1	1	1	0	497	
8	1	1	1	0	498	
9	1	1	1	0	499	
10	1	1	1	0	499	
11	1	1	1	0	499	
12	1	1	1	0	499	
13	1	1	1	0	499	
14	1	1	1	0	500	
15	1	1	1	0	500	
0	1	1	1	0	501	
1	1	1	1	0	501	
2	1	1	1	0	502	
3	1	1	1	0	502	
4	1	1	1	0	503	
5	1	1	1	0	504	
6	1	1	1	0	504	
7	1	1	1	0	504	
8	1	1	1	0	505	
9	1	1	1	0	505	
10	1	1	1	0	506	
11	1	1	1	0	507	
12	1	1	1	0	507	
13	1	1	1	0	508	
14	1	1	1	0	508	
15	1	1	1	0	508	
0	1	1	1	0	508	
1	1	1	1	0	508	
2	1	1	1	0	509	
3	1	1	1	0	509	
4	1	1	1	0	510	
5	1	1	1	0	510	
6	1	1	1	0	510	
7	1	1	1	0	510	
8	1	1	1	0	510	
9	1	1	1	0	510	
10	1	1	1	0	511	
11	1	1	1	0	510	
12	1	1	1	0	510	
13	1	1	1	0	510	
14	1	1	1	0	511	
15	1	1	1	0	511	
0	1	1	1	0	512	
1	1	1	1	0	511	
2	1	1	1	0	511	
3	1	1	1	0	511	
4	1	1	1	0	511	
5	1	1	1	0	510	
6	1	1	1	0	510	
7	1	1	1	0	510	
8	1	1	1	0	511	
9	1	1	1	0	511	
10	1	1	1	0	512	
11	1	1	1	0	511	
12	1	1	1	0	512	
13	1	1	1	0	512	
14	1	1	1	0	512	
15	1	1	1	0	513	
0	1	1	1	0	512	
1	1	1	1	0	513	
2	1	1	1	0	514	
3	1	1	1	0	515	
4	1	1	1	0	515	
5	1	1	1	0	514	
6	1	1	1	0	515	
7	1	1	1	0	515	
8	1	1	1	0	515	
9	1	1	1	0	515	
10	1	1	1	0	515	
11	1	1	1	0	515	
12	1	1	1	0	516	
13	1	1	1	0	516	
14	1	1	1	0	517	
15	1	1	1	0	516	
0	1	1	1	0	516	
1	1	1	1	0	516	
2	1	1	1	0	516	
3	1	1	1	0	516	
4	1	1	1	0	516	
5	1	1	1	0	516	
6	1	1	1	0	517	
7	1	1	1	0	517	
8	1	1	1	0	517	
9	1	1	1	0	517	
10	1	1	1	0	517	
11	1	1	1	0	517	
12	1	1	1	0	516	
13	1	1	1	0	517	
14	1	1	1	0	518	
15	1	1	1	0	518	
0	1	1	1	0	518	
1	1	1	1	0	519	
2	1	1	1	0	520	
3	1	1	1	0	519	
4	1	1	1	0	519	
5	1	1	1	0	518	
6	1	1	1	0	518	
7	1	1	1	0	518	
8	1	1	1	0	519	
9	1	1	1	0	519	
10	1	1	1	0	519	
11	1	1	1	0	520	
12	1	1	1	0	521	
13	1	1	1	0	521	
14	1	1	1	0	521	
15	1	1	1	0	521	
0	1	1	1	0	521	
1	1	1	1	0	521	
2	1	1	1	0	521	
3	1	1	1	0	522	
4	1	1	1	0	522	
5	1	1	1	0	523	
6	1	1	1	0	523	
7	1	1	1	0	524	
8	1	1	1	0	524	
9	1	1	1	0	524	
10	1	1	1	0	524	
11	1	1	1	0	524	
12	1	1	1	0	524	
13	1	1	1	0	525	
14	1	1	1	0	526	
15	1	1	1	0	526	
0	1	1	1	0	526	
1	1	1	1	0	526	
2	1	1	1	0	527	
3	1	1	1	0	527	
4	1	1	1	0	527	
5	1	1	1	0	527	
6	1	1	1	0	528	
7	1	1	1	0	528	
8	1	1	1	0	529	
9	1	1	1	0	529	
10	1	1	1	0	530	
11	1	1	1	0	531	
12	1	1	1	0	531	
13	1	1	1	0	532	
14	1	1	1	0	532	
15	1	1	1	0	532	
0	1	1	1	0	532	
1	1	1	1	0	532	
2	1	1	1	0	532	
3	1	1	1	0	533	
4	1	1	1	0	533	
5	1	1	1	0	532	
6	1	1	1	0	533	
7	1	1	1	0	534	
8	1	1	1	0	534	
9	1	1	1	0	533	
10	1	1	1	0	533	
11	1	1	1	0	533	
12	1	1	1	0	534	
13	1	1	1	0	535	
14	1	1	1	0	535	
15	1	1	1	0	535	
0	1	1	1	0	536	
1	1	1	1	0	536	
2	1	1	1	0	536	
3	1	1	1	0	536	
4	1	1	1	0	536	
5	1	1	1	0	536	
6	1	1	1	0	536	
7	1	1	1	0	536	
8	1	1	1	0	536	
9	1	1	1	0	536	
10	1	1	1	0	536	
11	1	1	1	0	535	
12	1	1	1	0	535	
13	1	1	1	0	535	
14	1	1	1	0	534	
15	1	1	1	0	534	
0	1	1	1	0	534	
1	1	1	1	0	534	
2	1	1	1	0	533	
3	1	1	1	0	534	
4	1	1	1	0	534	
5	1	1	1	0	534	
6	1	1	1	0	533	
7	1	1	1	0	532	
8	1	1	1	0	531	
9	1	1	1	0	530	
10	1	1	1	0	529	
11	1	1	1	0	528	
12	1	1	1	0	527	
13	1	1	1	0	526	
14	1	1	1	0	524	
15	1	1	1	0	523	
0	1	1	1	0	521	
1	1	1	1	0	519	
2	1	1	1	0	518	
3	1	1	1	0	516	
4	1	1	1	0	515	
5	1	1	1	0	513	
6	1	1	1	0	511	
7	1	1	1	0	510	
8	1	1	1	0	508	
9	1	1	1	0	507	
10	1	1	1	0	504	
11	1	1	1	0	502	
12	1	1	1	0	500	
13	1	1	1	0	499	
14	1	1	1	0	497	
15	1	1	1	0	496	
0	1	1	1	0	495	
1	1	1	1	0	494	
2	1	1	1	0	492	
3	1	1	1	0	491	
4	1	1	1	0	490	
5	1	1	1	0	489	
6	1	1	1	0	488	
7	1	1	1	0	487	
8	1	1	1	0	486	
9	1	1	1	0	485	
10	1	1	1	0	484	
11	1	1	1	0	483	
12	1	1	1	0	482	
13	1	1	1	0	480	
14	1	1	1	0	479	
15	1	1	1	0	477	
0	1	1	1	0	476	
1	1	1	1	0	476	
2	1	1	1	0	476	
3	1	1	1	0	476	
4	1	1	1	0	476	
5	1	1	1	0	476	
6	1	1	1	0	476	
7	1	1	1	0	475	
8	1	1	1	0	475	
9	1	1	1	0	474	
10	1	1	1	0	474	
11	1	1	1	0	475	
12	1	1	1	0	475	
13	1	1	1	0	474	
14	1	1	1	0	474	
15	1	1	1	0	474	
0	1	1	1	0	473	
1	1	1	1	0	474	
2	1	1	1	0	473	
3	1	1	1	0	473	
4	1	1	1	0	474	
5	1	1	1	0	473	
6	1	1	1	0	474	
7	1	1	1	0	473	
8	1	1	1	0	474	
9	1	1	1	0	473	
10	1	1	1	0	474	
11	1	1	1	0	475	
12	1	1	1	0	475	
13	1	1	1	0	475	
14	1	1	1	0	475	
15	1	1	1	0	476	
0	1	1	1	0	476	
1	1	1	1	0	477	
2	1	1	1	0	478	
3	1	1	1	0	478	
4	1	1	1	0	479	
5	1	1	1	0	479	
6	1	1	1	0	479	
7	1	1	1	0	480	
8	1	1	1	0	480	
9	1	1	1	0	480	
10	1	1	1	0	481	
11	1	1	1	0	482	
12	1	1	1	0	483	
13	1	1	1	0	483	
14	1	1	1	0	483	
15	1	1	1	0	485	
0	1	1	1	0	485	
1	1	1	1	0	485	
2	1	1	1	0	485	
3	1	1	1	0	486	
4	1	1	1	0	487	
5	1	1	1	0	487	
6	1	1	1	0	487	
7	1	1	1	0	487	
8	1	1	1	0	487	
9	1	1	1	0	488	
10	1	1	1	0	487	
11	1	1	1	0	487	
12	1	1	1	0	487	
13	1	1	1	0	487	
14	1	1	1	0	487	
15	1	1	1	0	487	
0	1	1	1	0	488	
1	1	1	1	0	488	
2	1	1	1	0	488	
3	1	1	1	0	489	
4	1	1	1	0	489	
5	1	1	1	0	489	
6	1	1	1	0	491	
7	1	1	1	0	492	
8	1	1	1	0	492	
9	1	1	1	0	493	
10	1	1	1	0	493	
11	1	1	1	0	494	
12	1	1	1	0	494	
13	1	1	1	0	494	
14	1	1	1	0	494	
15	1	1	1	0	494	
0	1	1	1	0	494	
1	1	1	1	0	495	
2	1	1	1	0	496	
3	1	1	1	0	496	
4	1	1	1	0	496	
5	1	1	1	0	496	
6	1	1	1	0	496	
7	1	1	1	0	497	
8	1	1	1	0	497	
9	1	1	1	0	497	
10	1	1	1	0	498	
11	1	1	1	0	498	
12	1	1	1	0	498	
13	1	1	1	0	499	
14	1	1	1	0	499	
15	1	1	1	0	499	
0	1	1	1	0	500	
1	1	1	1	0	500	
2	1	1	1	0	500	
3	1	1	1	0	501	
4	1	1	1	0	501	
5	1	1	1	0	501	
6	1	1	1	0	502	
7	1	1	1	0	502	
8	1	1	1	0	503	
9	1	1	1	0	503	
10	1	1	1	0	503	
11	1	1	1	0	504	
12	1	1	1	0	504	
13	1	1	1	0	504	
14	1	1	1	0	504	
15	1	1	1	0	504	
0	1	1	1	0	504	
1	1	1	1	0	504	
2	1	1	1	0	504	
3	1	1	1	0	504	
4	1	1	1	0	504	
5	1	1	1	0	504	
6	1	1	1	0	504	
7	1	1	1	0	504	
8	1	1	1	0	504	
9	1	1	1	0	504	
10	1	1	1	0	504	
11	1	1	1	0	504	
12	1	1	1	0	504	
13	1	1	1	0	504	
14	1	1	1	0	504	
15	1	1	1	0	504	
0	1	1	1	0	504	
1	1	1	1	0	504	
2	1	1	1	0	504	
3	1	1	1	0	504	
4	1	1	1	0	504	
5	1	1	1	0	504	
6	1	1	1	0	505	
7	1	1	1	0	506	
8	1	1	1	0	506	
9	1	1	1	0	506	
10	1	1	1	0	506	
11	1	1	1	0	506	
12	1	1	1	0	506	
13	1	1	1	0	507	
14	1	1	1	0	506	
15	1	1	1	0	507	
0	1	1	1	0	507	
1	1	1	1	0	507	
2	1	1	1	0	507	
3	1	1	1	0	508	
4	1	1	1	0	508	
5	1	1	1	0	508	
6	1	1	1	0	507	
7	1	1	1	0	507	
8	1	1	1	0	508	
9	1	1	1	0	508	
10	1	1	1	0	507	
11	1	1	1	0	507	
12	1	1	1	0	507	
13	1	1	1	0	507	
14	1	1	1	0	506	
15	1	1	1	0	506	
0	1	1	1	0	506	
1	1	1	1	0	507	
2	1	1	1	0	507	
3	1	1	1	0	506	
4	1	1	1	0	507	
5	1	1	1	0	507	
6	1	1	1	0	507	
7	1	1	1	0	507	
8	1	1	1	0	508	
9	1	1	1	0	508	
10	1	1	1	0	508	
11	1	1	1	0	508	
12	1	1	1	0	508	
13	1	1	1	0	508	
14	1	1	1	0	508	
15	1	1	1	0	509	
0	1	1	1	0	510	
1	1	1	1	0	510	
2	1	1	1	0	509	
3	1	1	1	0	509	
4	1	1	1	0	508	
5	1	1	1	0	509	
6	1	1	1	0	509	
7	1	1	1	0	509	
8	1	1	1	0	509	
9	1	1	1	0	508	
10	1	1	1	0	508	
11	1	1	1	0	508	
12	1	1	1	0	508	
13	1	1	1	0	507	
14	1	1	1	0	507	
15	1	1	1	0	508	
0	1	1	1	0	508	
1	1	1	1	0	509	
2	1	1	1	0	509	
3	1	1	1	0	508	
4	1	1	1	0	508	
5	1	1	1	0	508	
6	1	1	1	0	508	
7	1	1	1	0	508	
8	1	1	1	0	508	
9	1	1	1	0	508	
10	1	1	1	0	508	
11	1	1	1	0	508	
12	1	1	1	0	509	
13	1	1	1	0	508	
14	1	1	1	0	508	
15	1	1	1	0	509	
0	1	1	1	0	508	
1	1	1	1	0	509	
2	1	1	1	0	509	
3	1	1	1	0	509	
4	1	1	1	0	509	
5	1	1	1	0	510	
6	1	1	1	0	510	
7	1	1	1	0	511	
8	1	1	1	0	511	
9	1	1	1	0	511	
10	1	1	1	0	511	
11	1	1	1	0	510	
12	1	1	1	0	511	
13	1	1	1	0	512	
14	1	1	1	0	511	
15	1	1	1	0	512	
0	1	1	1	0	512	
1	1	1	1	0	512	
2	1	1	1	0	512	
3	1	1	1	0	512	
4	1	1	1	0	512	
5	1	1	1	0	512	
6	1	1	1	0	512	
7	1	1	1	0	512	
8	1	1	1	0	513	
9	1	1	1	0	514	
10	1	1	1	0	514	
11	1	1	1	0	514	
12	1	1	1	0	514	
13	1	1	1	0	514	
14	1	1	1	0	514	
15	1	1	1	0	514	
0	1	1	1	0	514	
1	1	1	1	0	515	
2	1	1	1	0	515	
3	1	1	1	0	515	
4	1	1	1	0	515	
5	1	1	1	0	514	
6	1	1	1	0	515	
7	1	1	1	0	515	
8	1	1	1	0	515	
9	1	1	1	0	515	
10	1	1	1	0	515	
11	1	1	1	0	515	
12	1	1	1	0	516	
13	1	1	1	0	516	
14	1	1	1	0	516	
15	1	1	1	0	517	
0	1	1	1	0	518	
1	1	1	1	0	518	
2	1	1	1	0	518	
3	1	1	1	0	518	
4	1	1	1	0	518	
5	1	1	1	0	518	
6	1	1	1	0	519	
7	1	1	1	0	519	
8	1	1	1	0	518	
9	1	1	1	0	519	
10	1	1	1	0	519	
11	1	1	1	0	519	
12	1	1	1	0	519	
13	1	1	1	0	519	
14	1	1	1	0	518	
15	1	1	1	0	519	
0	1	1	1	0	519	
1	1	1	1	0	519	
2	1	1	1	0	519	
3	1	1	1	0	519	
4	1	1	1	0	520	
5	1	1	1	0	519	
6	1	1	1	0	519	
7	1	1	1	0	519	
8	1	1	1	0	520	
9	1	1	1	0	519	
10	1	1	1	0	519	
11	1	1	1	0	520	
12	1	1	1	0	520	
13	1	1	1	0	520	
14	1	1	1	0	519	
15	1	1	1	0	519	
0	1	1	1	0	519	
1	1	1	1	0	518	
2	1	1	1	0	518	
3	1	1	1	0	518	
4	1	1	1	0	519	
5	1	1	1	0	519	
6	1	1	1	0	519	
7	1	1	1	0	520	
8	1	1	1	0	520	
9	1	1	1	0	520	
10	1	1	1	0	519	
11	1	1	1	0	519	
12	1	1	1	0	519	
13	1	1	1	0	520	
14	1	1	1	0	521	
15	1	1	1	0	521	
0	1	1	1	0	521	
1	1	1	1	0	522	
2	1	1	1	0	521	
3	1	1	1	0	521	
4	1	1	1	0	521	
5	1	1	1	0	520	
6	1	1	1	0	519	
7	1	1	1	0	519	
8	1	1	1	0	519	
9	1	1	1	0	519	
10	1	1	1	0	519	
11	1	1	1	0	519	
12	1	1	1	0	519	
13	1	1	1	0	519	
14	1	1	1	0	520	
15	1	1	1	0	519	
0	1	1	1	0	519	
1	1	1	1	0	519	
2	1	1	1	0	519	
3	1	1	1	0	520	
4	1	1	1	0	520	
5	1	1	1	0	521	
6	1	1	1	0	521	
7	1	1	1	0	521	
8	1	1	1	0	520	
9	1	1	1	0	521	
10	1	1	1	0	521	
11	1	1	1	0	521	
12	1	1	1	0	522	
13	1	1	1	0	523	
14	1	1	1	0	524	
15	1	1	1	0	524	
0	1	1	1	0	524	
1	1	1	1	0	524	
2	1	1	1	0	524	
3	1	1	1	0	524	
4	1	1	1	0	526	
5	1	1	1	0	526	
6	1	1	1	0	526	
7	1	1	1	0	525	
8	1	1	1	0	525	
9	1	1	1	0	525	
10	1	1	1	0	525	
11	1	1	1	0	525	
12	1	1	1	0	524	
13	1	1	1	0	524	
14	1	1	1	0	524	
15	1	1	1	0	524	
0	1	1	1	0	526	
1	1	1	1	0	526	
2	1	1	1	0	527	
3	1	1	1	0	527	
4	1	1	1	0	527	
5	1	1	1	0	527	
6	1	1	1	0	527	
7	1	1	1	0	527	
8	1	1	1	0	527	
9	1	1	1	0	529	
10	1	1	1	0	529	
11	1	1	1	0	531	
12	1	1	1	0	532	
13	1	1	1	0	532	
14	1	1	1	0	532	
15	1	1	1	0	532	
0	1	1	1	0	531	
1	1	1	1	0	531	
2	1	1	1	0	530	
3	1	1	1	0	529	
4	1	1	1	0	529	
5	1	1	1	0	529	
6	1	1	1	0	528	
7	1	1	1	0	527	
8	1	1	1	0	525	
9	1	1	1	0	525	
10	1	1	1	0	525	
11	1	1	1	0	524	
12	1	1	1	0	524	
13	1	1	1	0	524	
14	1	1	1	0	524	
15	1	1	1	0	524	
0	1	1	1	0	524	
1	1	1	1	0	524	
2	1	1	1	0	524	
3	1	1	1	0	523	
4	1	1	1	0	522	
5	1	1	1	0	521	
6	1	1	1	0	520	
7	1	1	1	0	519	
8	1	1	1	0	519	
9	1	1	1	0	519	
10	1	1	1	0	518	
11	1	1	1	0	517	
12	1	1	1	0	516	
13	1	1	1	0	516	
14	1	1	1	0	515	
15	1	1	1	0	513	
0	1	1	1	0	512	
1	1	1	1	0	511	
2	1	1	1	0	510	
3	1	1	1	0	508	
4	1	1	1	0	508	
5	1	1	1	0	506	
6	1	1	1	0	504	
7	1	1	1	0	503	
8	1	1	1	0	502	
9	1	1	1	0	502	
10	1	1	1	0	501	
11	1	1	1	0	502	
12	1	1	1	0	502	
13	1	1	1	0	502	
14	1	1	1	0	502	
15	1	1	1	0	502	
0	1	1	1	0	503	
1	1	1	1	0	503	
2	1	1	1	0	502	
3	1	1	1	0	502	
4	1	1	1	0	501	
5	1	1	1	0	500	
6	1	1	1	0	501	
7	1	1	1	0	502	
8	1	1	1	0	503	
9	1	1	1	0	503	
10	1	1	1	0	505	
11	1	1	1	0	505	
12	1	1	1	0	505	
13	1	1	1	0	505	
14	1	1	1	0	505	
15	1	1	1	0	506	
0	1	1	1	0	506	
1	1	1	1	0	505	
2	1	1	1	0	506	
3	1	1	1	0	506	
4	1	1	1	0	506	
5	1	1	1	0	505	
6	1	1	1	0	505	
7	1	1	1	0	505	
8	1	1	1	0	505	
9	1	1	1	0	505	
10	1	1	1	0	505	
11	1	1	1	0	506	
12	1	1	1	0	506	
13	1	1	1	0	506	
14	1	1	1	0	505	
15	1	1	1	0	505	
0	1	1	1	0	505	
1	1	1	1	0	505	
2	1	1	1	0	504	
3	1	1	1	0	504	
4	1	1	1	0	504	
5	1	1	1	0	504	
6	1	1	1	0	504	
7	1	1	1	0	504	
8	1	1	1	0	504	
9	1	1	1	0	504	
10	1	1	1	0	504	
11	1	1	1	0	503	
12	1	1	1	0	504	
13	1	1	1	0	504	
14	1	1	1	0	504	
15	1	1	1	0	504	
0	1	1	1	0	504	
1	1	1	1	0	504	
2	1	1	1	0	504	
3	1	1	1	0	505	
4	1	1	1	0	505	
5	1	1	1	0	505	
6	1	1	1	0	504	
7	1	1	1	0	504	
8	1	1	1	0	504	
9	1	1	1	0	504	
10	1	1	1	0	505	
11	1	1	1	0	505	
12	1	1	1	0	506	
13	1	1	1	0	506	
14	1	1	1	0	506	
15	1	1	1	0	506	
0	1	1	1	0	505	
1	1	1	1	0	505	
2	1	1	1	0	505	
3	1	1	1	0	504	
4	1	1	1	0	504	
5	1	1	1	0	504	
6	1	1	1	0	503	
7	1	1	1	0	502	
8	1	1	1	0	502	
9	1	1	1	0	502	
10	1	1	1	0	500	
11	1	1	1	0	501	
12	1	1	1	0	502	
13	1	1	1	0	503	
14	1	1	1	0	506	
15	1	1	1	0	510	
0	1	1	1	0	514	
1	1	1	1	0	517	
2	1	1	1	0	520	
3	1	1	1	0	525	
4	1	1	1	0	529	
5	1	1	1	0	535	
6	1	1	1	0	542	
7	1	1	1	0	549	
8	1	1	1	0	559	
9	1	1	1	0	569	
10	1	1	1	0	580	
11	1	1	1	0	592	
12	1	1	1	0	603	
13	1	1	1	0	612	
14	1	1	1	0	622	
15	1	1	1	0	631	
0	1	1	1	0	639	
1	1	1	1	0	647	
2	1	1	1	0	654	
3	1	1	1	0	659	
4	1	1	1	0	663	
5	1	1	1	0	665	
6	1	1	1	0	665	
7	1	1	1	0	664	
8	1	1	1	0	660	
9	1	1	1	0	654	
10	1	1	1	0	645	
11	1	1	1	0	632	
12	1	1	1	0	618	
13	1	1	1	0	603	
14	1	1	1	0	591	
15	1	1	1	0	578	
0	1	1	1	0	565	
1	1	1	1	0	552	
2	1	1	1	0	539	
3	1	1	1	0	526	
4	1	1	1	0	512	
5	1	1	1	0	500	
6	1	1	1	0	488	
7	1	1	1	0	475	
8	1	1	1	0	463	
9	1	1	1	0	452	
10	1	1	1	0	443	
11	1	1	1	0	435	
12	1	1	1	0	431	
13	1	1	1	0	428	
14	1	1	1	0	427	
15	1	1	1	0	428	
0	1	1	1	0	430	
1	1	1	1	0	431	
2	1	1	1	0	433	
3	1	1	1	0	436	
4	1	1	1	0	439	
5	1	1	1	0	442	
6	1	1	1	0	446	
7	1	1	1	0	451	
8	1	1	1	0	455	
9	1	1	1	0	460	
10	1	1	1	0	464	
11	1	1	1	0	468	
12	1	1	1	0	472	
13	1	1	1	0	475	
14	1	1	1	0	478	
15	1	1	1	0	480	
0	1	1	1	0	483	
1	1	1	1	0	485	
2	1	1	1	0	488	
3	1	1	1	0	490	
4	1	1	1	0	492	
5	1	1	1	0	493	
6	1	1	1	0	494	
7	1	1	1	0	495	
8	1	1	1	0	496	
9	1	1	1	0	496	
10	1	1	1	0	497	
11	1	1	1	0	498	
12	1	1	1	0	498	
13	1	1	1	0	499	
14	1	1	1	0	500	
15	1	1	1	0	500	
0	1	1	1	0	501	
1	1	1	1	0	502	
2	1	1	1	0	503	
3	1	1	1	0	503	
4	1	1	1	0	504	
5	1	1	1	0	504	
6	1	1	1	0	504	
7	1	1	1	0	504	
8	1	1	1	0	505	
9	1	1	1	0	505	
10	1	1	1	0	505	
11	1	1	1	0	505	
12	1	1	1	0	505	
13	1	1	1	0	505	
14	1	1	1	0	504	
15	1	1	1	0	505	
0	1	1	1	0	505	
1	1	1	1	0	505	
2	1	1	1	0	506	
3	1	1	1	0	506	
4	1	1	1	0	506	
5	1	1	1	0	506	
6	1	1	1	0	507	
7	1	1	1	0	507	
8	1	1	1	0	508	
9	1	1	1	0	508	
10	1	1	1	0	508	
11	1	1	1	0	508	
12	1	1	1	0	509	
13	1	1	1	0	509	
14	1	1	1	0	509	
15	1	1	1	0	509	
0	1	1	1	0	508	
1	1	1	1	0	509	
2	1	1	1	0	509	
3	1	1	1	0	509	
4	1	1	1	0	509	
5	1	1	1	0	509	
6	1	1	1	0	510	
7	1	1	1	0	511	
8	1	1	1	0	511	
9	1	1	1	0	511	
10	1	1	1	0	511	
11	1	1	1	0	510	
12	1	1	1	0	511	
13	1	1	1	0	511	
14	1	1	1	0	512	
15	1	1	1	0	512	
0	1	1	1	0	511	
1	1	1	1	0	511	
2	1	1	1	0	512	
3	1	1	1	0	511	
4	1	1	1	0	511	
5	1	1	1	0	510	
6	1	1	1	0	510	
7	1	1	1	0	511	
8	1	1	1	0	511	
9	1	1	1	0	512	
10	1	1	1	0	512	
11	1	1	1	0	512	
12	1	1	1	0	512	
13	1	1	1	0	513	
14	1	1	1	0	513	
15	1	1	1	0	513	
0	1	1	1	0	513	
1	1	1	1	0	513	
2	1	1	1	0	513	
3	1	1	1	0	514	
4	1	1	1	0	513	
5	1	1	1	0	513	
6	1	1	1	0	513	
7	1	1	1	0	513	
8	1	1	1	0	512	
9	1	1	1	0	513	
10	1	1	1	0	513	
11	1	1	1	0	514	
12	1	1	1	0	514	
13	1	1	1	0	515	
14	1	1	1	0	516	
15	1	1	1	0	516	
0	1	1	1	0	516	
1	1	1	1	0	517	
2	1	1	1	0	517	
3	1	1	1	0	517	
4	1	1	1	0	518	
5	1	1	1	0	518	
6	1	1	1	0	519	
7	1	1	1	0	519	
8	1	1	1	0	520	
9	1	1	1	0	520	
10	1	1	1	0	520	
11	1	1	1	0	521	
12	1	1	1	0	521	
13	1	1	1	0	520	
14	1	1	1	0	520	
15	1	1	1	0	521	
0	1	1	1	0	521	
1	1	1	1	0	523	
2	1	1	1	0	523	
3	1	1	1	0	524	
4	1	1	1	0	524	
5	1	1	1	0	525	
6	1	1	1	0	526	
7	1	1	1	0	525	
8	1	1	1	0	525	
9	1	1	1	0	526	
10	1	1	1	0	526	
11	1	1	1	0	526	
12	1	1	1	0	527	
13	1	1	1	0	526	
14	1	1	1	0	527	
15	1	1	1	0	527	
0	1	1	1	0	527	
1	1	1	1	0	528	
2	1	1	1	0	528	
3	1	1	1	0	528	
4	1	1	1	0	528	
5	1	1	1	0	528	
6	1	1	1	0	528	
7	1	1	1	0	528	
8	1	1	1	0	529	
9	1	1	1	0	530	
10	1	1	1	0	531	
11	1	1	1	0	531	
12	1	1	1	0	530	
13	1	1	1	0	531	
14	1	1	1	0	531	
15	1	1	1	0	531	
0	1	1	1	0	532	
1	1	1	1	0	532	
2	1	1	1	0	532	
3	1	1	1	0	533	
4	1	1	1	0	532	
5	1	1	1	0	532	
6	1	1	1	0	532	
7	1	1	1	0	532	
8	1	1	1	0	532	
9	1	1	1	0	532	
10	1	1	1	0	533	
11	1	1	1	0	533	
12	1	1	1	0	534	
13	1	1	1	0	535	
14	1	1	1	0	535	
15	1	1	1	0	535	
0	1	1	1	0	535	
1	1	1	1	0	536	
2	1	1	1	0	536	
3	1	1	1	0	536	
4	1	1	1	0	537	
5	1	1	1	0	537	
6	1	1	1	0	538	
7	1	1	1	0	538	
8	1	1	1	0	538	
9	1	1	1	0	538	
10	1	1	1	0	538	
11	1	1	1	0	539	
12	1	1	1	0	539	
13	1	1	1	0	540	
14	1	1	1	0	540	
15	1	1	1	0	540	
0	1	1	1	0	540	
1	1	1	1	0	539	
2	1	1	1	0	539	
3	1	1	1	0	538	
4	1	1	1	0	538	
5	1	1	1	0	538	
6	1	1	1	0	537	
7	1	1	1	0	537	
8	1	1	1	0	537	
9	1	1	1	0	537	
10	1	1	1	0	537	
11	1	1	1	0	536	
12	1	1	1	0	536	
13	1	1	1	0	534	
14	1	1	1	0	533	
15	1	1	1	0	532	
0	1	1	1	0	531	
1	1	1	1	0	530	
2	1	1	1	0	528	
3	1	1	1	0	527	
4	1	1	1	0	526	
5	1	1	1	0	525	
6	1	1	1	0	523	
7	1	1	1	0	522	
8	1	1	1	0	519	
9	1	1	1	0	519	
10	1	1	1	0	517	
11	1	1	1	0	515	
12	1	1	1	0	513	
13	1	1	1	0	512	
14	1	1	1	0	510	
15	1	1	1	0	508	
0	1	1	1	0	506	
1	1	1	1	0	503	
2	1	1	1	0	501	
3	1	1	1	0	499	
4	1	1	1	0	497	
5	1	1	1	0	496	
6	1	1	1	0	495	
7	1	1	1	0	494	
8	1	1	1	0	492	
9	1	1	1	0	491	
10	1	1	1	0	489	
11	1	1	1	0	487	
12	1	1	1	0	485	
13	1	1	1	0	484	
14	1	1	1	0	483	
15	1	1	1	0	481	
0	1	1	1	0	481	
1	1	1	1	0	479	
2	1	1	1	0	479	
3	1	1	1	0	477	
4	1	1	1	0	476	
5	1	1	1	0	474	
6	1	1	1	0	473	
7	1	1	1	0	472	
8	1	1	1	0	471	
9	1	1	1	0	471	
10	1	1	1	0	470	
11	1	1	1	0	469	
12	1	1	1	0	468	
13	1	1	1	0	468	
14	1	1	1	0	468	
15	1	1	1	0	468	
0	1	1	1	0	468	
1	1	1	1	0	468	
2	1	1	1	0	468	
3	1	1	1	0	468	
4	1	1	1	0	467	
5	1	1	1	0	467	
6	1	1	1	0	467	
7	1	1	1	0	466	
8	1	1	1	0	465	
9	1	1	1	0	465	
10	1	1	1	0	464	
11	1	1	1	0	464	
12	1	1	1	0	465	
13	1	1	1	0	466	
14	1	1	1	0	467	
15	1	1	1	0	467	
0	1	1	1	0	467	
1	1	1	1	0	467	
2	1	1	1	0	466	
3	1	1	1	0	467	
4	1	1	1	0	466	
5	1	1	1	0	466	
6	1	1	1	0	466	
7	1	1	1	0	466	
8	1	1	1	0	466	
9	1	1	1	0	466	
10	1	1	1	0	467	
11	1	1	1	0	467	
12	1	1	1	0	467	
13	1	1	1	0	467	
14	1	1	1	0	468	
15	1	1	1	0	468	
0	1	1	1	0	468	
1	1	1	1	0	469	
2	1	1	1	0	470	
3	1	1	1	0	470	
4	1	1	1	0	471	
5	1	1	1	0	471	
6	1	1	1	0	471	
7	1	1	1	0	471	
8	1	1	1	0	473	
9	1	1	1	0	474	
10	1	1	1	0	475	
11	1	1	1	0	475	
12	1	1	1	0	476	
13	1	1	1	0	476	
14	1	1	1	0	476	
15	1	1	1	0	477	
0	1	1	1	0	477	
1	1	1	1	0	478	
2	1	1	1	0	478	
3	1	1	1	0	479	
4	1	1	1	0	479	
5	1	1	1	0	479	
6	1	1	1	0	480	
7	1	1	1	0	480	
8	1	1	1	0	481	
9	1	1	1	0	481	
10	1	1	1	0	481	
11	1	1	1	0	481	
12	1	1	1	0	482	
13	1	1	1	0	483	
14	1	1	1	0	483	
15	1	1	1	0	483	
0	1	1	1	0	483	
1	1	1	1	0	483	
2	1	1	1	0	484	
3	1	1	1	0	485	
4	1	1	1	0	485	
5	1	1	1	0	484	
6	1	1	1	0	485	
7	1	1	1	0	486	
8	1	1	1	0	486	
9	1	1	1	0	487	
10	1	1	1	0	487	
11	1	1	1	0	487	
12	1	1	1	0	488	
13	1	1	1	0	488	
14	1	1	1	0	488	
15	1	1	1	0	488	
0	1	1	1	0	489	
1	1	1	1	0	489	
2	1	1	1	0	491	
3	1	1	1	0	491	
4	1	1	1	0	492	
5	1	1	1	0	492	
6	1	1	1	0	493	
7	1	1	1	0	494	
8	1	1	1	0	494	
9	1	1	1	0	494	
10	1	1	1	0	494	
11	1	1	1	0	495	
12	1	1	1	0	495	
13	1	1	1	0	494	
14	1	1	1	0	495	
15	1	1	1	0	496	
0	1	1	1	0	496	
1	1	1	1	0	496	
2	1	1	1	0	496	
3	1	1	1	0	496	
4	1	1	1	0	496	
5	1	1	1	0	496	
6	1	1	1	0	497	
7	1	1	1	0	498	
8	1	1	1	0	498	
9	1	1	1	0	499	
10	1	1	1	0	500	
11	1	1	1	0	500	
12	1	1	1	0	500	
13	1	1	1	0	500	
14	1	1	1	0	500	
15	1	1	1	0	500	
0	1	1	1	0	500	
1	1	1	1	0	500	
2	1	1	1	0	501	
3	1	1	1	0	501	
4	1	1	1	0	501	
5	1	1	1	0	501	
6	1	1	1	0	502	
7	1	1	1	0	502	
8	1	1	1	0	502	
9	1	1	1	0	503	
10	1	1	1	0	504	
11	1	1	1	0	504	
12	1	1	1	0	504	
13	1	1	1	0	504	
14	1	1	1	0	505	
15	1	1	1	0	505	
0	1	1	1	0	505	
1	1	1	1	0	506	
2	1	1	1	0	506	
3	1	1	1	0	505	
4	1	1	1	0	506	
5	1	1	1	0	507	
6	1	1	1	0	507	
7	1	1	1	0	507	
8	1	1	1	0	507	
9	1	1	1	0	508	
10	1	1	1	0	507	
11	1	1	1	0	507	
12	1	1	1	0	508	
13	1	1	1	0	508	
14	1	1	1	0	508	
15	1	1	1	0	508	
0	1	1	1	0	508	
1	1	1	1	0	509	
2	1	1	1	0	508	
3	1	1	1	0	508	
4	1	1	1	0	508	
5	1	1	1	0	509	
6	1	1	1	0	509	
7	1	1	1	0	509	
8	1	1	1	0	510	
9	1	1	1	0	510	
10	1	1	1	0	510	
11	1	1	1	0	510	
12	1	1	1	0	510	
13	1	1	1	0	510	
14	1	1	1	0	510	
15	1	1	1	0	509	
0	1	1	1	0	509	
1	1	1	1	0	509	
2	1	1	1	0	510	
3	1	1	1	0	511	
4	1	1	1	0	511	
5	1	1	1	0	510	
6	1	1	1	0	511	
7	1	1	1	0	511	
8	1	1	1	0	510	
9	1	1	1	0	510	
10	1	1	1	0	510	
11	1	1	1	0	511	
12	1	1	1	0	512	
13	1	1	1	0	512	
14	1	1	1	0	512	
15	1	1	1	0	512	
0	1	1	1	0	512	
1	1	1	1	0	512	
2	1	1	1	0	512	
3	1	1	1	0	512	
4	1	1	1	0	512	
5	1	1	1	0	512	
6	1	1	1	0	512	
7	1	1	1	0	512	
8	1	1	1	0	512	
9	1	1	1	0	512	
10	1	1	1	0	512	
11	1	1	1	0	512	
12	1	1	1	0	512	
13	1	1	1	0	512	
14	1	1	1	0	512	
15	1	1	1	0	513	
0	1	1	1	0	513	
1	1	1	1	0	514	
2	1	1	1	0	515	
3	1	1	1	0	515	
4	1	1	1	0	515	
5	1	1	1	0	515	
6	1	1	1	0	514	
7	1	1	1	0	513	
8	1	1	1	0	513	
9	1	1	1	0	513	
10	1	1	1	0	513	
11	1	1	1	0	513	
12	1	1	1	0	513	
13	1	1	1	0	513	
14	1	1	1	0	512	
15	1	1	1	0	512	
0	1	1	1	0	512	
1	1	1	1	0	512	
2	1	1	1	0	512	
3	1	1	1	0	512	
4	1	1	1	0	512	
5	1	1	1	0	512	
6	1	1	1	0	512	
7	1	1	1	0	512	
8	1	1	1	0	512	
9	1	1	1	0	512	
10	1	1	1	0	511	
11	1	1	1	0	511	
12	1	1	1	0	511	
13	1	1	1	0	512	
14	1	1	1	0	512	
15	1	1	1	0	512	
0	1	1	1	0	512	
1	1	1	1	0	513	
2	1	1	1	0	513	
3	1	1	1	0	513	
4	1	1	1	0	512	
5	1	1	1	0	512	
6	1	1	1	0	512	
7	1	1	1	0	511	
8	1	1	1	0	511	
9	1	1	1	0	510	
10	1	1	1	0	509	
11	1	1	1	0	508	
12	1	1	1	0	508	
13	1	1	1	0	508	
14	1	1	1	0	508	
15	1	1	1	0	508	
0	1	1	1	0	508	
1	1	1	1	0	508	
2	1	1	1	0	508	
3	1	1	1	0	508	
4	1	1	1	0	509	
5	1	1	1	0	508	
6	1	1	1	0	508	
7	1	1	1	0	508	
8	1	1	1	0	507	
9	1	1	1	0	507	
10	1	1	1	0	507	
11	1	1	1	0	507	
12	1	1	1	0	507	
13	1	1	1	0	507	
14	1	1	1	0	508	
15	1	1	1	0	509	
0	1	1	1	0	508	
1	1	1	1	0	508	
2	1	1	1	0	507	
3	1	1	1	0	507	
4	1	1	1	0	507	
5	1	1	1	0	507	
6	1	1	1	0	508	
7	1	1	1	0	508	
8	1	1	1	0	509	
9	1	1	1	0	509	
10	1	1	1	0	509	
11	1	1	1	0	509	
12	1	1	1	0	509	
13	1	1	1	0	509	
14	1	1	1	0	509	
15	1	1	1	0	509	
0	1	1	1	0	509	
1	1	1	1	0	510	
2	1	1	1	0	510	
3	1	1	1	0	510	
4	1	1	1	0	510	
5	1	1	1	0	510	
6	1	1	1	0	509	
7	1	1	1	0	508	
8	1	1	1	0	508	
9	1	1	1	0	509	
10	1	1	1	0	509	
11	1	1	1	0	509	
12	1	1	1	0	509	
13	1	1	1	0	508	
14	1	1	1	0	508	
15	1	1	1	0	509	
0	1	1	1	0	508	
1	1	1	1	0	508	
2	1	1	1	0	508	
3	1	1	1	0	508	
4	1	1	1	0	509	
5	1	1	1	0	509	
6	1	1	1	0	509	
7	1	1	1	0	509	
8	1	1	1	0	509	
9	1	1	1	0	509	
10	1	1	1	0	508	
11	1	1	1	0	508	
12	1	1	1	0	508	
13	1	1	1	0	507	
14	1	1	1	0	508	
15	1	1	1	0	508	
0	1	1	1	0	509	
1	1	1	1	0	509	
2	1	1	1	0	510	
3	1	1	1	0	510	
4	1	1	1	0	510	
5	1	1	1	0	510	
6	1	1	1	0	510	
7	1	1	1	0	511	
8	1	1	1	0	512	
9	1	1	1	0	512	
10	1	1	1	0	512	
11	1	1	1	0	512	
12	1	1	1	0	513	
13	1	1	1	0	513	
14	1	1	1	0	513	
15	1	1	1	0	514	
0	1	1	1	0	513	
1	1	1	1	0	514	
2	1	1	1	0	514	
3	1	1	1	0	515	
4	1	1	1	0	516	
5	1	1	1	0	516	
6	1	1	1	0	517	
7	1	1	1	0	518	
8	1	1	1	0	518	
9	1	1	1	0	518	
10	1	1	1	0	519	
11	1	1	1	0	519	
12	1	1	1	0	519	
13	1	1	1	0	519	
14	1	1	1	0	519	
15	1	1	1	0	518	
0	1	1	1	0	518	
1	1	1	1	0	518	
2	1	1	1	0	518	
3	1	1	1	0	519	
4	1	1	1	0	519	
5	1	1	1	0	519	
6	1	1	1	0	521	
7	1	1	1	0	521	
8	1	1	1	0	521	
9	1	1	1	0	521	
10	1	1	1	0	521	
11	1	1	1	0	521	
12	1	1	1	0	522	
13	1	1	1	0	522	
14	1	1	1	0	524	
15	1	1	1	0	525	
0	1	1	1	0	526	
1	1	1	1	0	526	
2	1	1	1	0	527	
3	1	1	1	0	527	
4	1	1	1	0	527	
5	1	1	1	0	527	
6	1	1	1	0	526	
7	1	1	1	0	526	
8	1	1	1	0	526	
9	1	1	1	0	524	
10	1	1	1	0	524	
11	1	1	1	0	523	
12	1	1	1	0	521	
13	1	1	1	0	520	
14	1	1	1	0	519	
15	1	1	1	0	519	
0	1	1	1	0	518	
1	1	1	1	0	517	
2	1	1	1	0	516	
3	1	1	1	0	517	
4	1	1	1	0	517	
5	1	1	1	0	517	
6	1	1	1	0	518	
7	1	1	1	0	517	
8	1	1	1	0	517	
9	1	1	1	0	516	
10	1	1	1	0	515	
11	1	1	1	0	514	
12	1	1	1	0	513	
13	1	1	1	0	512	
14	1	1	1	0	511	
15	1	1	1	0	511	
0	1	1	1	0	511	
1	1	1	1	0	510	
2	1	1	1	0	510	
3	1	1	1	0	509	
4	1	1	1	0	508	
5	1	1	1	0	507	
6	1	1	1	0	506	
7	1	1	1	0	505	
8	1	1	1	0	504	
9	1	1	1	0	503	
10	1	1	1	0	502	
11	1	1	1	0	502	
12	1	1	1	0	501	
13	1	1	1	0	500	
14	1	1	1	0	499	
15	1	1	1	0	498	
0	1	1	1	0	498	
1	1	1	1	0	498	
2	1	1	1	0	498	
3	1	1	1	0	499	
4	1	1	1	0	499	
5	1	1	1	0	499	
6	1	1	1	0	499	
7	1	1	1	0	500	
8	1	1	1	0	500	
9	1	1	1	0	500	
10	1	1	1	0	500	
11	1	1	1	0	501	
12	1	1	1	0	501	
13	1	1	1	0	502	
14	1	1	1	0	502	
15	1	1	1	0	502	
0	1	1	1	0	502	
1	1	1	1	0	502	
2	1	1	1	0	502	
3	1	1	1	0	502	
4	1	1	1	0	502	
5	1	1	1	0	502	
6	1	1	1	0	503	
7	1	1	1	0	502	
8	1	1	1	0	502	
9	1	1	1	0	501	
10	1	1	1	0	501	
11	1	1	1	0	502	
12	1	1	1	0	502	
13	1	1	1	0	502	
14	1	1	1	0	502	
15	1	1	1	0	502	
0	1	1	1	0	502	
1	1	1	1	0	503	
2	1	1	1	0	503	
3	1	1	1	0	502	
4	1	1	1	0	503	
5	1	1	1	0	503	
6	1	1	1	0	503	
7	1	1	1	0	503	
8	1	1	1	0	503	
9	1	1	1	0	503	
10	1	1	1	0	503	
11	1	1	1	0	503	
12	1	1	1	0	502	
13	1	1	1	0	502	
14	1	1	1	0	502	
15	1	1	1	0	503	
0	1	1	1	0	503	
1	1	1	1	0	502	
2	1	1	1	0	502	
3	1	1	1	0	502	
4	1	1	1	0	503	
5	1	1	1	0	503	
6	1	1	1	0	504	
7	1	1	1	0	503	
8	1	1	1	0	503	
9	1	1	1	0	504	
10	1	1	1	0	504	
11	1	1	1	0	505	
12	1	1	1	0	504	
13	1	1	1	0	505	
14	1	1	1	0	505	
15	1	1	1	0	506	
0	1	1	1	0	506	
1	1	1	1	0	505	
2	1	1	1	0	506	
3	1	1	1	0	507	
4	1	1	1	0	506	
5	1	1	1	0	506	
6	1	1	1	0	505	
7	1	1	1	0	505	
8	1	1	1	0	505	
9	1	1	1	0	505	
10	1	1	1	0	504	
11	1	1	1	0	504	
12	1	1	1	0	503	
13	1	1	1	0	502	
14	1	1	1	0	502	
15	1	1	1	0	501	
0	1	1	1	0	502	
1	1	1	1	0	504	
2	1	1	1	0	507	
3	1	1	1	0	511	
4	1	1	1	0	514	
5	1	1	1	0	518	
6	1	1	1	0	522	
7	1	1	1	0	526	
8	1	1	1	0	529	
9	1	1	1	0	534	
10	1	1	1	0	541	
11	1	1	1	0	549	
12	1	1	1	0	559	
13	1	1	1	0	569	
14	1	1	1	0	580	
15	1	1	1	0	592	
0	1	1	1	0	603	
1	1	1	1	0	614	
2	1	1	1	0	623	
3	1	1	1	0	632	
4	1	1	1	0	640	
5	1	1	1	0	648	
6	1	1	1	0	655	
7	1	1	1	0	662	
8	1	1	1	0	667	
9	1	1	1	0	669	
10	1	1	1	0	670	
11	1	1	1	0	669	
12	1	1	1	0	665	
13	1	1	1	0	659	
14	1	1	1	0	649	
15	1	1	1	0	637	
0	1	1	1	0	623	
1	1	1	1	0	608	
2	1	1	1	0	594	
3	1	1	1	0	580	
4	1	1	1	0	567	
5	1	1	1	0	553	
6	1	1	1	0	539	
7	1	1	1	0	526	
8	1	1	1	0	512	
9	1	1	1	0	500	
10	1	1	1	0	488	
11	1	1	1	0	475	
12	1	1	1	0	463	
13	1	1	1	0	451	
14	1	1	1	0	443	
15	1	1	1	0	436	
0	1	1	1	0	431	
1	1	1	1	0	428	
2	1	1	1	0	427	
3	1	1	1	0	428	
4	1	1	1	0	431	
5	1	1	1	0	433	
6	1	1	1	0	435	
7	1	1	1	0	438	
8	1	1	1	0	440	
9	1	1	1	0	444	
10	1	1	1	0	447	
11	1	1	1	0	450	
12	1	1	1	0	454	
13	1	1	1	0	458	
14	1	1	1	0	463	
15	1	1	1	0	467	
0	1	1	1	0	472	
1	1	1	1	0	475	
2	1	1	1	0	478	
3	1	1	1	0	481	
4	1	1	1	0	483	
5	1	1	1	0	484	
6	1	1	1	0	486	
7	1	1	1	0	487	
8	1	1	1	0	489	
9	1	1	1	0	492	
10	1	1	1	0	493	
11	1	1	1	0	494	
12	1	1	1	0	494	
13	1	1	1	0	494	
14	1	1	1	0	494	
15	1	1	1	0	494	
0	1	1	1	0	494	
1	1	1	1	0	495	
2	1	1	1	0	496	
3	1	1	1	0	496	
4	1	1	1	0	497	
5	1	1	1	0	497	
6	1	1	1	0	498	
7	1	1	1	0	498	
8	1	1	1	0	498	
9	1	1	1	0	499	
10	1	1	1	0	499	
11	1	1	1	0	499	
12	1	1	1	0	499	
13	1	1	1	0	499	
14	1	1	1	0	499	
15	1	1	1	0	499	
0	1	1	1	0	499	
1	1	1	1	0	499	
2	1	1	1	0	499	
3	1	1	1	0	499	
4	1	1	1	0	499	
5	1	1	1	0	500	
6	1	1	1	0	501	
7	1	1	1	0	501	
8	1	1	1	0	501	
9	1	1	1	0	502	
10	1	1	1	0	503	
11	1	1	1	0	503	
12	1	1	1	0	504	
13	1	1	1	0	504	
14	1	1	1	0	504	
15	1	1	1	0	505	
0	1	1	1	0	505	
1	1	1	1	0	505	
2	1	1	1	0	505	
3	1	1	1	0	506	
4	1	1	1	0	506	
5	1	1	1	0	507	
6	1	1	1	0	507	
7	1	1	1	0	507	
8	1	1	1	0	507	
9	1	1	1	0	507	
10	1	1	1	0	507	
11	1	1	1	0	506	
12	1	1	1	0	506	
13	1	1	1	0	507	
14	1	1	1	0	507	
15	1	1	1	0	508	
0	1	1	1	0	508	
1	1	1	1	0	509	
2	1	1	1	0	509	
3	1	1	1	0	510	
4	1	1	1	0	510	
5	1	1	1	0	511	
6	1	1	1	0	511	
7	1	1	1	0	511	
8	1	1	1	0	510	
9	1	1	1	0	510	
10	1	1	1	0	510	
11	1	1	1	0	510	
12	1	1	1	0	510	
13	1	1	1	0	511	
14	1	1	1	0	511	
15	1	1	1	0	511	
0	1	1	1	0	512	
1	1	1	1	0	512	
2	1	1	1	0	513	
3	1	1	1	0	513	
4	1	1	1	0	514	
5	1	1	1	0	515	
6	1	1	1	0	515	
7	1	1	1	0	515	
8	1	1	1	0	515	
9	1	1	1	0	516	
10	1	1	1	0	516	
11	1	1	1	0	517	
12	1	1	1	0	518	
13	1	1	1	0	518	
14	1	1	1	0	517	
15	1	1	1	0	518	
0	1	1	1	0	518	
1	1	1	1	0	518	
2	1	1	1	0	518	
3	1	1	1	0	519	
4	1	1	1	0	519	
5	1	1	1	0	519	
6	1	1	1	0	519	
7	1	1	1	0	519	
8	1	1	1	0	519	
9	1	1	1	0	519	
10	1	1	1	0	519	
11	1	1	1	0	519	
12	1	1	1	0	520	
13	1	1	1	0	521	
14	1	1	1	0	521	
15	1	1	1	0	522	
0	1	1	1	0	523	
1	1	1	1	0	523	
2	1	1	1	0	524	
3	1	1	1	0	524	
4	1	1	1	0	526	
5	1	1	1	0	527	
6	1	1	1	0	527	
7	1	1	1	0	527	
8	1	1	1	0	528	
9	1	1	1	0	529	
10	1	1	1	0	529	
11	1	1	1	0	530	
12	1	1	1	0	531	
13	1	1	1	0	531	
14	1	1	1	0	531	
15	1	1	1	0	531	
0	1	1	1	0	531	
1	1	1	1	0	532	
2	1	1	1	0	532	
3	1	1	1	0	534	
4	1	1	1	0	534	
5	1	1	1	0	535	
6	1	1	1	0	534	
7	1	1	1	0	535	
8	1	1	1	0	535	
9	1	1	1	0	536	
10	1	1	1	0	537	
11	1	1	1	0	537	
12	1	1	1	0	538	
13	1	1	1	0	538	
14	1	1	1	0	539	
15	1	1	1	0	539	
0	1	1	1	0	539	
1	1	1	1	0	539	
2	1	1	1	0	539	
3	1	1	1	0	540	
4	1	1	1	0	540	
5	1	1	1	0	541	
6	1	1	1	0	542	
7	1	1	1	0	541	
8	1	1	1	0	542	
9	1	1	1	0	543	
10	1	1	1	0	543	
11	1	1	1	0	543	
12	1	1	1	0	543	
13	1	1	1	0	543	
14	1	1	1	0	543	
15	1	1	1	0	543	
0	1	1	1	0	544	
1	1	1	1	0	544	
2	1	1	1	0	545	
3	1	1	1	0	546	
4	1	1	1	0	545	
5	1	1	1	0	545	
6	1	1	1	0	545	
7	1	1	1	0	546	
8	1	1	1	0	547	
9	1	1	1	0	547	
10	1	1	1	0	547	
11	1	1	1	0	547	
12	1	1	1	0	547	
13	1	1	1	0	547	
14	1	1	1	0	547	
15	1	1	1	0	547	
0	1	1	1	0	547	
1	1	1	1	0	546	
2	1	1	1	0	546	
3	1	1	1	0	546	
4	1	1	1	0	546	
5	1	1	1	0	545	
6	1	1	1	0	545	
7	1	1	1	0	545	
8	1	1	1	0	545	
9	1	1	1	0	544	
10	1	1	1	0	544	
11	1	1	1	0	544	
12	1	1	1	0	544	
13	1	1	1	0	544	
14	1	1	1	0	543	
15	1	1	1	0	542	
0	1	1	1	0	541	
1	1	1	1	0	541	
2	1	1	1	0	540	
3	1	1	1	0	538	
4	1	1	1	0	536	
5	1	1	1	0	535	
6	1	1	1	0	533	
7	1	1	1	0	531	
8	1	1	1	0	529	
9	1	1	1	0	528	
10	1	1	1	0	526	
11	1	1	1	0	525	
12	1	1	1	0	523	
13	1	1	1	0	521	
14	1	1	1	0	520	
15	1	1	1	0	519	
0	1	1	1	0	518	
1	1	1	1	0	516	
2	1	1	1	0	514	
3	1	1	1	0	512	
4	1	1	1	0	511	
5	1	1	1	0	508	
6	1	1	1	0	505	
7	1	1	1	0	503	
8	1	1	1	0	500	
9	1	1	1	0	498	
10	1	1	1	0	497	
11	1	1	1	0	495	
12	1	1	1	0	494	
13	1	1	1	0	493	
14	1	1	1	0	492	
15	1	1	1	0	490	
0	1	1	1	0	488	
1	1	1	1	0	486	
2	1	1	1	0	484	
3	1	1	1	0	483	
4	1	1	1	0	482	
5	1	1	1	0	481	
6	1	1	1	0	480	
7	1	1	1	0	479	
8	1	1	1	0	479	
9	1	1	1	0	478	
10	1	1	1	0	477	
11	1	1	1	0	476	
12	1	1	1	0	475	
13	1	1	1	0	475	
14	1	1	1	0	475	
15	1	1	1	0	475	
0	1	1	1	0	474	
1	1	1	1	0	473	
2	1	1	1	0	473	
3	1	1	1	0	473	
4	1	1	1	0	472	
5	1	1	1	0	471	
6	1	1	1	0	471	
7	1	1	1	0	470	
8	1	1	1	0	470	
9	1	1	1	0	470	
10	1	1	1	0	470	
11	1	1	1	0	470	
12	1	1	1	0	471	
13	1	1	1	0	471	
14	1	1	1	0	470	
15	1	1	1	0	470	
0	1	1	1	0	470	
1	1	1	1	0	470	
2	1	1	1	0	471	
3	1	1	1	0	472	
4	1	1	1	0	472	
5	1	1	1	0	472	
6	1	1	1	0	473	
7	1	1	1	0	473	
8	1	1	1	0	473	
9	1	1	1	0	473	
10	1	1	1	0	473	
11	1	1	1	0	473	
12	1	1	1	0	474	
13	1	1	1	0	475	
14	1	1	1	0	475	
15	1	1	1	0	476	
0	1	1	1	0	476	
1	1	1	1	0	476	
2	1	1	1	0	475	
3	1	1	1	0	476	
4	1	1	1	0	476	
5	1	1	1	0	476	
6	1	1	1	0	476	
7	1	1	1	0	476	
8	1	1	1	0	476	
9	1	1	1	0	476	
10	1	1	1	0	478	
11	1	1	1	0	478	
12	1	1	1	0	478	
13	1	1	1	0	479	
14	1	1	1	0	479	
15	1	1	1	0	480	
0	1	1	1	0	480	
1	1	1	1	0	481	
2	1	1	1	0	482	
3	1	1	1	0	482	
4	1	1	1	0	483	
5	1	1	1	0	484	
6	1	1	1	0	484	
7	1	1	1	0	484	
8	1	1	1	0	486	
9	1	1	1	0	486	
10	1	1	1	0	487	
11	1	1	1	0	487	
12	1	1	1	0	487	
13	1	1	1	0	488	
14	1	1	1	0	488	
15	1	1	1	0	488	
0	1	1	1	0	487	
1	1	1	1	0	487	
2	1	1	1	0	487	
3	1	1	1	0	488	
4	1	1	1	0	489	
5	1	1	1	0	490	
6	1	1	1	0	491	
7	1	1	1	0	491	
8	1	1	1	0	492	
9	1	1	1	0	492	
10	1	1	1	0	492	
11	1	1	1	0	492	
12	1	1	1	0	491	
13	1	1	1	0	491	
14	1	1	1	0	492	
15	1	1	1	0	492	
0	1	1	1	0	492	
1	1	1	1	0	492	
2	1	1	1	0	492	
3	1	1	1	0	492	
4	1	1	1	0	492	
5	1	1	1	0	492	
6	1	1	1	0	493	
7	1	1	1	0	494	
8	1	1	1	0	494	
9	1	1	1	0	495	
10	1	1	1	0	495	
11	1	1	1	0	495	
12	1	1	1	0	495	
13	1	1	1	0	496	
14	1	1	1	0	496	
15	1	1	1	0	497	
0	1	1	1	0	496	
1	1	1	1	0	497	
2	1	1	1	0	497	
3	1	1	1	0	497	
4	1	1	1	0	497	
5	1	1	1	0	497	
6	1	1	1	0	498	
7	1	1	1	0	498	
8	1	1	1	0	498	
9	1	1	1	0	499	
10	1	1	1	0	499	
11	1	1	1	0	499	
12	1	1	1	0	500	
13	1	1	1	0	500	
14	1	1	1	0	502	
15	1	1	1	0	502	
0	1	1	1	0	502	
1	1	1	1	0	502	
2	1	1	1	0	502	
3	1	1	1	0	502	
4	1	1	1	0	502	
5	1	1	1	0	502	
6	1	1	1	0	503	
7	1	1	1	0	503	
8	1	1	1	0	504	
9	1	1	1	0	504	
10	1	1	1	0	505	
11	1	1	1	0	505	
12	1	1	1	0	505	
13	1	1	1	0	505	
14	1	1	1	0	505	
15	1	1	1	0	506	
0	1	1	1	0	507	
1	1	1	1	0	508	
2	1	1	1	0	508	
3	1	1	1	0	508	
4	1	1	1	0	508	
5	1	1	1	0	509	
6	1	1	1	0	509	
7	1	1	1	0	509	
8	1	1	1	0	509	
9	1	1	1	0	509	
10	1	1	1	0	509	
11	1	1	1	0	509	
12	1	1	1	0	509	
13	1	1	1	0	509	
14	1	1	1	0	510	
15	1	1	1	0	510	
0	1	1	1	0	510	
1	1	1	1	0	510	
2	1	1	1	0	510	
3	1	1	1	0	510	
4	1	1	1	0	510	
5	1	1	1	0	510	
6	1	1	1	0	510	
7	1	1	1	0	510	
8	1	1	1	0	510	
9	1	1	1	0	511	
10	1	1	1	0	510	
11	1	1	1	0	510	
12	1	1	1	0	510	
13	1	1	1	0	511	
14	1	1	1	0	512	
15	1	1	1	0	512	
0	1	1	1	0	513	
1	1	1	1	0	513	
2	1	1	1	0	514	
3	1	1	1	0	515	
4	1	1	1	0	515	
5	1	1	1	0	515	
6	1	1	1	0	515	
7	1	1	1	0	515	
8	1	1	1	0	515	
9	1	1	1	0	515	
10	1	1	1	0	515	
11	1	1	1	0	513	
12	1	1	1	0	514	
13	1	1	1	0	514	
14	1	1	1	0	515	
15	1	1	1	0	515	
0	1	1	1	0	515	
1	1	1	1	0	516	
2	1	1	1	0	516	
3	1	1	1	0	516	
4	1	1	1	0	516	
5	1	1	1	0	515	
6	1	1	1	0	515	
7	1	1	1	0	515	
8	1	1	1	0	515	
9	1	1	1	0	515	
10	1	1	1	0	515	
11	1	1	1	0	515	
12	1	1	1	0	515	
13	1	1	1	0	515	
14	1	1	1	0	515	
15	1	1	1	0	514	
0	1	1	1	0	514	
1	1	1	1	0	514	
2	1	1	1	0	514	
3	1	1	1	0	514	
4	1	1	1	0	514	
5	1	1	1	0	514	
6	1	1	1	0	515	
7	1	1	1	0	516	
8	1	1	1	0	516	
9	1	1	1	0	516	
10	1	1	1	0	516	
11	1	1	1	0	516	
12	1	1	1	0	516	
13	1	1	1	0	515	
14	1	1	1	0	515	
15	1	1	1	0	515	
0	1	1	1	0	515	
1	1	1	1	0	515	
2	1	1	1	0	515	
3	1	1	1	0	516	
4	1	1	1	0	516	
5	1	1	1	0	516	
6	1	1	1	0	516	
7	1	1	1	0	516	
8	1	1	1	0	516	
9	1	1	1	0	516	
10	1	1	1	0	516	
11	1	1	1	0	515	
12	1	1	1	0	515	
13	1	1	1	0	515	
14	1	1	1	0	515	
15	1	1	1	0	515	
0	1	1	1	0	515	
1	1	1	1	0	515	
2	1	1	1	0	515	
3	1	1	1	0	515	
4	1	1	1	0	515	
5	1	1	1	0	515	
6	1	1	1	0	515	
7	1	1	1	0	514	
8	1	1	1	0	514	
9	1	1	1	0	514	
10	1	1	1	0	514	
11	1	1	1	0	513	
12	1	1	1	0	513	
13	1	1	1	0	513	
14	1	1	1	0	513	
15	1	1	1	0	513	
0	1	1	1	0	513	
1	1	1	1	0	512	
2	1	1	1	0	512	
3	1	1	1	0	512	
4	1	1	1	0	511	
5	1	1	1	0	511	
6	1	1	1	0	510	
7	1	1	1	0	510	
8	1	1	1	0	510	
9	1	1	1	0	510	
10	1	1	1	0	511	
11	1	1	1	0	511	
12	1	1	1	0	512	
13	1	1	1	0	512	
14	1	1	1	0	512	
15	1	1	1	0	512	
0	1	1	1	0	512	
1	1	1	1	0	512	
2	1	1	1	0	512	
3	1	1	1	0	513	
4	1	1	1	0	513	
5	1	1	1	0	513	
6	1	1	1	0	513	
7	1	1	1	0	513	
8	1	1	1	0	513	
9	1	1	1	0	513	
10	1	1	1	0	513	
11	1	1	1	0	512	
12	1	1	1	0	513	
13	1	1	1	0	513	
14	1	1	1	0	513	
15	1	1	1	0	513	
0	1	1	1	0	513	
1	1	1	1	0	513	
2	1	1	1	0	512	
3	1	1	1	0	512	
4	1	1	1	0	512	
5	1	1	1	0	512	
6	1	1	1	0	512	
7	1	1	1	0	512	
8	1	1	1	0	512	
9	1	1	1	0	513	
10	1	1	1	0	513	
11	1	1	1	0	513	
12	1	1	1	0	513	
13	1	1	1	0	513	
14	1	1	1	0	513	
15	1	1	1	0	513	
0	1	1	1	0	513	
1	1	1	1	0	513	
2	1	1	1	0	514	
3	1	1	1	0	514	
4	1	1	1	0	514	
5	1	1	1	0	515	
6	1	1	1	0	515	
7	1	1	1	0	515	
8	1	1	1	0	516	
9	1	1	1	0	516	
10	1	1	1	0	516	
11	1	1	1	0	516	
12	1	1	1	0	516	
13	1	1	1	0	517	
14	1	1	1	0	516	
15	1	1	1	0	515	
0	1	1	1	0	515	
1	1	1	1	0	515	
2	1	1	1	0	516	
3	1	1	1	0	516	
4	1	1	1	0	516	
5	1	1	1	0	516	
6	1	1	1	0	516	
7	1	1	1	0	516	
8	1	1	1	0	517	
9	1	1	1	0	517	
10	1	1	1	0	516	
11	1	1	1	0	516	
12	1	1	1	0	516	
13	1	1	1	0	517	
14	1	1	1	0	518	
15	1	1	1	0	519	
0	1	1	1	0	519	
1	1	1	1	0	519	
2	1	1	1	0	519	
3	1	1	1	0	520	
4	1	1	1	0	520	
5	1	1	1	0	520	
6	1	1	1	0	521	
7	1	1	1	0	521	
8	1	1	1	0	523	
9	1	1	1	0	523	
10	1	1	1	0	523	
11	1	1	1	0	524	
12	1	1	1	0	524	
13	1	1	1	0	524	
14	1	1	1	0	525	
15	1	1	1	0	526	
0	1	1	1	0	527	
1	1	1	1	0	527	
2	1	1	1	0	527	
3	1	1	1	0	527	
4	1	1	1	0	527	
5	1	1	1	0	526	
6	1	1	1	0	526	
7	1	1	1	0	526	
8	1	1	1	0	526	
9	1	1	1	0	526	
10	1	1	1	0	527	
11	1	1	1	0	527	
12	1	1	1	0	528	
13	1	1	1	0	528	
14	1	1	1	0	527	
15	1	1	1	0	527	
0	1	1	1	0	527	
1	1	1	1	0	527	
2	1	1	1	0	528	
3	1	1	1	0	529	
4	1	1	1	0	530	
5	1	1	1	0	531	
6	1	1	1	0	532	
7	1	1	1	0	532	
8	1	1	1	0	533	
9	1	1	1	0	533	
10	1	1	1	0	533	
11	1	1	1	0	533	
12	1	1	1	0	532	
13	1	1	1	0	532	
14	1	1	1	0	531	
15	1	1	1	0	531	
0	1	1	1	0	530	
1	1	1	1	0	529	
2	1	1	1	0	528	
3	1	1	1	0	527	
4	1	1	1	0	527	
5	1	1	1	0	526	
6	1	1	1	0	524	
7	1	1	1	0	524	
8	1	1	1	0	524	
9	1	1	1	0	524	
10	1	1	1	0	524	
11	1	1	1	0	524	
12	1	1	1	0	523	
13	1	1	1	0	522	
14	1	1	1	0	520	
15	1	1	1	0	520	
0	1	1	1	0	518	
1	1	1	1	0	517	
2	1	1	1	0	515	
3	1	1	1	0	514	
4	1	1	1	0	513	
5	1	1	1	0	513	
6	1	1	1	0	512	
7	1	1	1	0	511	
8	1	1	1	0	510	
9	1	1	1	0	510	
10	1	1	1	0	509	
11	1	1	1	0	509	
12	1	1	1	0	508	
13	1	1	1	0	507	
14	1	1	1	0	506	
15	1	1	1	0	505	
0	1	1	1	0	504	
1	1	1	1	0	503	
2	1	1	1	0	502	
3	1	1	1	0	501	
4	1	1	1	0	500	
5	1	1	1	0	499	
6	1	1	1	0	497	
7	1	1	1	0	497	
8	1	1	1	0	497	
9	1	1	1	0	496	
10	1	1	1	0	496	
11	1	1	1	0	496	
12	1	1	1	0	496	
13	1	1	1	0	496	
14	1	1	1	0	496	
15	1	1	1	0	496	
0	1	1	1	0	496	
1	1	1	1	0	496	
2	1	1	1	0	496	
3	1	1	1	0	497	
4	1	1	1	0	497	
5	1	1	1	0	497	
6	1	1	1	0	497	
7	1	1	1	0	497	
8	1	1	1	0	497	
9	1	1	1	0	497	
10	1	1	1	0	497	
11	1	1	1	0	497	
12	1	1	1	0	498	
13	1	1	1	0	499	
14	1	1	1	0	499	
15	1	1	1	0	499	
0	1	1	1	0	500	
1	1	1	1	0	500	
2	1	1	1	0	499	
3	1	1	1	0	499	
4	1	1	1	0	500	
5	1	1	1	0	500	
6	1	1	1	0	501	
7	1	1	1	0	502	
8	1	1	1	0	502	
9	1	1	1	0	503	
10	1	1	1	0	503	
11	1	1	1	0	503	
12	1	1	1	0	503	
13	1	1	1	0	503	
14	1	1	1	0	503	
15	1	1	1	0	503	
0	1	1	1	0	503	
1	1	1	1	0	503	
2	1	1	1	0	504	
3	1	1	1	0	503	
4	1	1	1	0	503	
5	1	1	1	0	503	
6	1	1	1	0	502	
7	1	1	1	0	502	
8	1	1	1	0	502	
9	1	1	1	0	502	
10	1	1	1	0	502	
11	1	1	1	0	502	
12	1	1	1	0	502	
13	1	1	1	0	502	
14	1	1	1	0	502	
15	1	1	1	0	502	
0	1	1	1	0	501	
1	1	1	1	0	501	
2	1	1	1	0	500	
3	1	1	1	0	500	
4	1	1	1	0	500	
5	1	1	1	0	500	
6	1	1	1	0	500	
7	1	1	1	0	500	
8	1	1	1	0	500	
9	1	1	1	0	500	
10	1	1	1	0	500	
11	1	1	1	0	500	
12	1	1	1	0	499	
13	1	1	1	0	499	
14	1	1	1	0	499	
15	1	1	1	0	499	
0	1	1	1	0	499	
1	1	1	1	0	498	
2	1	1	1	0	497	
3	1	1	1	0	497	
4	1	1	1	0	496	
5	1	1	1	0	495	
6	1	1	1	0	495	
7	1	1	1	0	496	
8	1	1	1	0	499	
9	1	1	1	0	502	
10	1	1	1	0	505	
11	1	1	1	0	509	
12	1	1	1	0	513	
13	1	1	1	0	518	
14	1	1	1	0	523	
15	1	1	1	0	527	
0	1	1	1	0	532	
1	1	1	1	0	540	
2	1	1	1	0	548	
3	1	1	1	0	559	
4	1	1	1	0	569	
5	1	1	1	0	580	
6	1	1	1	0	592	
7	1	1	1	0	603	
8	1	1	1	0	612	
9	1	1	1	0	622	
10	1	1	1	0	630	
11	1	1	1	0	638	
12	1	1	1	0	646	
13	1	1	1	0	653	
14	1	1	1	0	659	
15	1	1	1	0	662	
0	1	1	1	0	664	
1	1	1	1	0	664	
2	1	1	1	0	662	
3	1	1	1	0	656	
4	1	1	1	0	649	
5	1	1	1	0	638	
6	1	1	1	0	623	
7	1	1	1	0	608	
8	1	1	1	0	594	
9	1	1	1	0	580	
10	1	1	1	0	566	
11	1	1	1	0	552	
12	1	1	1	0	539	
13	1	1	1	0	525	
14	1	1	1	0	511	
15	1	1	1	0	498	
0	1	1	1	0	487	
1	1	1	1	0	473	
2	1	1	1	0	461	
3	1	1	1	0	450	
4	1	1	1	0	440	
5	1	1	1	0	433	
6	1	1	1	0	426	
7	1	1	1	0	422	
8	1	1	1	0	420	
9	1	1	1	0	420	
10	1	1	1	0	420	
11	1	1	1	0	422	
12	1	1	1	0	424	
13	1	1	1	0	427	
14	1	1	1	0	430	
15	1	1	1	0	433	
0	1	1	1	0	436	
1	1	1	1	0	440	
2	1	1	1	0	443	
3	1	1	1	0	447	
4	1	1	1	0	452	
5	1	1	1	0	456	
6	1	1	1	0	461	
7	1	1	1	0	465	
8	1	1	1	0	468	
9	1	1	1	0	472	
10	1	1	1	0	474	
11	1	1	1	0	476	
12	1	1	1	0	478	
13	1	1	1	0	480	
14	1	1	1	0	481	
15	1	1	1	0	483	
0	1	1	1	0	485	
1	1	1	1	0	486	
2	1	1	1	0	487	
3	1	1	1	0	488	
4	1	1	1	0	488	
5	1	1	1	0	489	
6	1	1	1	0	491	
7	1	1	1	0	491	
8	1	1	1	0	491	
9	1	1	1	0	491	
10	1	1	1	0	492	
11	1	1	1	0	492	
12	1	1	1	0	492	
13	1	1	1	0	493	
14	1	1	1	0	492	
15	1	1	1	0	493	
0	1	1	1	0	494	
1	1	1	1	0	494	
2	1	1	1	0	495	
3	1	1	1	0	495	
4	1	1	1	0	496	
5	1	1	1	0	496	
6	1	1	1	0	496	
7	1	1	1	0	497	
8	1	1	1	0	498	
9	1	1	1	0	498	
10	1	1	1	0	498	
11	1	1	1	0	499	
12	1	1	1	0	499	
13	1	1	1	0	499	
14	1	1	1	0	499	
15	1	1	1	0	499	
0	1	1	1	0	500	
1	1	1	1	0	500	
2	1	1	1	0	500	
3	1	1	1	0	501	
4	1	1	1	0	500	
5	1	1	1	0	501	
6	1	1	1	0	502	
7	1	1	1	0	502	
8	1	1	1	0	502	
9	1	1	1	0	502	
10	1	1	1	0	502	
11	1	1	1	0	503	
12	1	1	1	0	503	
13	1	1	1	0	503	
14	1	1	1	0	504	
15	1	1	1	0	504	
0	1	1	1	0	505	
1	1	1	1	0	506	
2	1	1	1	0	507	
3	1	1	1	0	507	
4	1	1	1	0	507	
5	1	1	1	0	508	
6	1	1	1	0	507	
7	1	1	1	0	507	
8	1	1	1	0	508	
9	1	1	1	0	507	
10	1	1	1	0	508	
11	1	1	1	0	508	
12	1	1	1	0	508	
13	1	1	1	0	508	
14	1	1	1	0	509	
15	1	1	1	0	510	
0	1	1	1	0	509	
1	1	1	1	0	509	
2	1	1	1	0	508	
3	1	1	1	0	508	
4	1	1	1	0	509	
5	1	1	1	0	510	
6	1	1	1	0	510	
7	1	1	1	0	511	
8	1	1	1	0	511	
9	1	1	1	0	511	
10	1	1	1	0	511	
11	1	1	1	0	510	
12	1	1	1	0	510	
13	1	1	1	0	510	
14	1	1	1	0	511	
15	1	1	1	0	512	
0	1	1	1	0	513	
1	1	1	1	0	513	
2	1	1	1	0	513	
3	1	1	1	0	513	
4	1	1	1	0	513	
5	1	1	1	0	514	
6	1	1	1	0	514	
7	1	1	1	0	514	
8	1	1	1	0	515	
9	1	1	1	0	515	
10	1	1	1	0	516	
11	1	1	1	0	516	
12	1	1	1	0	516	
13	1	1	1	0	516	
14	1	1	1	0	516	
15	1	1	1	0	516	
0	1	1	1	0	517	
1	1	1	1	0	517	
2	1	1	1	0	518	
3	1	1	1	0	518	
4	1	1	1	0	519	
5	1	1	1	0	519	
6	1	1	1	0	519	
7	1	1	1	0	520	
8	1	1	1	0	519	
9	1	1	1	0	519	
10	1	1	1	0	519	
11	1	1	1	0	520	
12	1	1	1	0	520	
13	1	1	1	0	521	
14	1	1	1	0	521	
15	1	1	1	0	521	
0	1	1	1	0	521	
1	1	1	1	0	521	
2	1	1	1	0	521	
3	1	1	1	0	520	
4	1	1	1	0	520	
5	1	1	1	0	521	
6	1	1	1	0	523	
7	1	1	1	0	523	
8	1	1	1	0	524	
9	1	1	1	0	523	
10	1	1	1	0	523	
11	1	1	1	0	524	
12	1	1	1	0	523	
13	1	1	1	0	523	
14	1	1	1	0	523	
15	1	1	1	0	524	
0	1	1	1	0	524	
1	1	1	1	0	524	
2	1	1	1	0	525	
3	1	1	1	0	524	
4	1	1	1	0	524	
5	1	1	1	0	525	
6	1	1	1	0	525	
7	1	1	1	0	525	
8	1	1	1	0	526	
9	1	1	1	0	526	
10	1	1	1	0	526	
11	1	1	1	0	526	
12	1	1	1	0	527	
13	1	1	1	0	527	
14	1	1	1	0	527	
15	1	1	1	0	527	
0	1	1	1	0	527	
1	1	1	1	0	526	
2	1	1	1	0	526	
3	1	1	1	0	526	
4	1	1	1	0	526	
5	1	1	1	0	527	
6	1	1	1	0	527	
7	1	1	1	0	528	
8	1	1	1	0	529	
9	1	1	1	0	529	
10	1	1	1	0	529	
11	1	1	1	0	528	
